,0_m5e2ipFvGVfttRESPcjYyX,1_QT5udM4Hc3aqgAmSGArFan,2_P3YuCcR5xtNG95oUnwFLZn,3_APB6vdyDENHaxx6nuVKRQu,4_3LrhdQwQUcjYdqKAjcRHyt,5_mfAPvNd32jeH7cMmndU5Zd,6_2faABT8boGjfVd48QWCcDN,7_KV3bkDnc8E6aPgcmTffCMB,8_AxZwuoYiXUKuWqNv9HWeLn,9_M4k4sBWiatHQ8druPUGtwK,10_6wSfhDbimimSVkpEMhtUc7,11_ibvA2M7FVfK3jAnkpfJkc6,12_Am2mm3J8WKaZ9dt6k7u9nN,13_XA7Rk4yC6RqiVPqC6apNzo,14_Xv3e9J8K7QwQp4gkuxoKP8,15_MGY4fFv2cp2FStnnM2vLWR,16_VBcrLt3hDV2BbtMfVB8W9U,17_DMVpGtNn6wpzio7UHcyuXt
220,0.357,0.275,0.264,0.262,0.288,0.269,0.269,0.253,0.253,0.39,0.468,0.476,0.432,0.391,0.495,0.481,0.475,0.412
221,0.357,0.274,0.269,0.263,0.288,0.266,0.267,0.248,0.255,0.39,0.463,0.475,0.433,0.393,0.491,0.48,0.485,0.411
222,0.358,0.273,0.267,0.261,0.287,0.263,0.265,0.249,0.253,0.389,0.467,0.476,0.435,0.393,0.5,0.48,0.491,0.413
223,0.359,0.274,0.265,0.259,0.282,0.264,0.264,0.247,0.253,0.384,0.467,0.476,0.435,0.391,0.495,0.473,0.481,0.411
224,0.357,0.271,0.263,0.256,0.282,0.265,0.261,0.245,0.247,0.375,0.456,0.472,0.428,0.384,0.484,0.461,0.466,0.401
225,0.357,0.268,0.26,0.254,0.28,0.257,0.257,0.239,0.245,0.362,0.438,0.454,0.411,0.369,0.471,0.446,0.448,0.385
226,0.354,0.266,0.257,0.252,0.278,0.254,0.253,0.236,0.242,0.344,0.416,0.434,0.389,0.349,0.453,0.431,0.431,0.363
227,0.351,0.266,0.256,0.251,0.279,0.256,0.252,0.238,0.242,0.321,0.399,0.414,0.364,0.326,0.434,0.411,0.413,0.34
228,0.348,0.265,0.255,0.251,0.276,0.255,0.251,0.237,0.243,0.296,0.379,0.391,0.336,0.3,0.407,0.385,0.389,0.315
229,0.346,0.26,0.252,0.247,0.27,0.252,0.248,0.236,0.239,0.272,0.357,0.366,0.308,0.275,0.38,0.361,0.366,0.29
230,0.341,0.258,0.248,0.242,0.265,0.246,0.243,0.23,0.235,0.247,0.331,0.338,0.28,0.249,0.354,0.335,0.342,0.264
231,0.334,0.252,0.242,0.238,0.262,0.241,0.238,0.225,0.23,0.223,0.304,0.311,0.252,0.224,0.328,0.31,0.315,0.238
232,0.33,0.251,0.238,0.234,0.261,0.238,0.235,0.222,0.227,0.198,0.28,0.286,0.223,0.199,0.301,0.283,0.292,0.211
233,0.329,0.251,0.236,0.234,0.26,0.236,0.235,0.22,0.225,0.172,0.259,0.264,0.195,0.174,0.278,0.26,0.269,0.185
234,0.327,0.249,0.235,0.232,0.258,0.235,0.235,0.22,0.225,0.151,0.24,0.244,0.172,0.153,0.258,0.239,0.247,0.163
235,0.326,0.246,0.236,0.231,0.255,0.235,0.235,0.22,0.225,0.133,0.223,0.225,0.152,0.135,0.24,0.222,0.23,0.143
236,0.327,0.242,0.235,0.231,0.256,0.234,0.233,0.221,0.224,0.119,0.209,0.209,0.136,0.12,0.224,0.209,0.214,0.128
237,0.331,0.244,0.236,0.232,0.258,0.235,0.233,0.222,0.225,0.108,0.196,0.198,0.122,0.109,0.211,0.197,0.203,0.115
238,0.339,0.249,0.238,0.236,0.26,0.238,0.236,0.224,0.227,0.099,0.186,0.189,0.112,0.099,0.201,0.186,0.192,0.106
239,0.347,0.254,0.242,0.239,0.264,0.242,0.24,0.228,0.23,0.091,0.178,0.182,0.103,0.092,0.194,0.18,0.184,0.098
240,0.358,0.258,0.248,0.245,0.269,0.247,0.246,0.234,0.236,0.087,0.172,0.176,0.098,0.088,0.187,0.174,0.18,0.093
241,0.372,0.265,0.253,0.25,0.277,0.255,0.253,0.242,0.242,0.085,0.17,0.172,0.094,0.085,0.183,0.172,0.177,0.09
242,0.388,0.273,0.261,0.258,0.286,0.262,0.261,0.249,0.249,0.082,0.169,0.169,0.091,0.081,0.18,0.169,0.175,0.088
243,0.407,0.283,0.268,0.267,0.295,0.272,0.27,0.257,0.259,0.081,0.167,0.168,0.091,0.081,0.18,0.166,0.174,0.087
244,0.426,0.292,0.275,0.275,0.305,0.281,0.279,0.263,0.267,0.082,0.167,0.167,0.092,0.083,0.181,0.165,0.174,0.089
245,0.452,0.305,0.289,0.289,0.318,0.294,0.293,0.276,0.28,0.087,0.169,0.17,0.096,0.088,0.183,0.167,0.176,0.093
246,0.483,0.321,0.305,0.305,0.335,0.311,0.308,0.292,0.295,0.091,0.172,0.174,0.101,0.091,0.185,0.171,0.179,0.097
247,0.513,0.336,0.319,0.32,0.352,0.326,0.321,0.308,0.31,0.093,0.174,0.175,0.105,0.094,0.187,0.174,0.181,0.101
248,0.544,0.352,0.334,0.336,0.368,0.339,0.334,0.325,0.325,0.097,0.176,0.178,0.11,0.098,0.19,0.177,0.184,0.106
249,0.575,0.369,0.35,0.353,0.386,0.354,0.351,0.341,0.34,0.104,0.18,0.183,0.118,0.106,0.195,0.18,0.188,0.113
250,0.612,0.391,0.369,0.373,0.41,0.372,0.372,0.361,0.359,0.113,0.187,0.19,0.127,0.115,0.201,0.188,0.194,0.122
251,0.659,0.417,0.394,0.398,0.438,0.398,0.399,0.385,0.384,0.123,0.196,0.199,0.138,0.125,0.21,0.197,0.203,0.132
252,0.709,0.444,0.419,0.422,0.467,0.425,0.425,0.411,0.407,0.133,0.204,0.206,0.15,0.134,0.22,0.205,0.211,0.143
253,0.765,0.472,0.445,0.448,0.494,0.451,0.451,0.437,0.433,0.142,0.212,0.216,0.16,0.144,0.229,0.213,0.219,0.153
254,0.818,0.498,0.471,0.478,0.522,0.477,0.478,0.464,0.458,0.152,0.222,0.225,0.171,0.155,0.24,0.222,0.23,0.163
255,0.875,0.528,0.498,0.506,0.554,0.505,0.507,0.493,0.485,0.164,0.232,0.234,0.184,0.167,0.251,0.232,0.241,0.174
256,0.937,0.565,0.532,0.542,0.588,0.537,0.539,0.526,0.517,0.177,0.245,0.246,0.198,0.18,0.264,0.243,0.254,0.187
257,1.0,0.604,0.568,0.576,0.625,0.571,0.574,0.56,0.55,0.19,0.256,0.258,0.213,0.193,0.278,0.256,0.264,0.201
258,1.07,0.645,0.604,0.614,0.665,0.609,0.61,0.596,0.588,0.204,0.267,0.27,0.229,0.208,0.29,0.269,0.277,0.217
259,1.142,0.683,0.639,0.653,0.708,0.65,0.646,0.635,0.627,0.218,0.279,0.284,0.244,0.222,0.303,0.284,0.29,0.231
260,1.214,0.717,0.673,0.687,0.747,0.687,0.683,0.671,0.663,0.231,0.29,0.294,0.26,0.235,0.315,0.295,0.301,0.245
261,1.279,0.749,0.704,0.719,0.779,0.719,0.715,0.703,0.694,0.243,0.299,0.307,0.275,0.249,0.324,0.306,0.312,0.259
262,1.333,0.783,0.733,0.749,0.811,0.749,0.747,0.73,0.723,0.257,0.308,0.317,0.291,0.263,0.337,0.316,0.322,0.273
263,1.382,0.813,0.766,0.782,0.846,0.782,0.78,0.759,0.752,0.271,0.319,0.327,0.306,0.279,0.35,0.327,0.336,0.287
264,1.443,0.85,0.795,0.815,0.881,0.816,0.81,0.797,0.784,0.284,0.331,0.341,0.321,0.292,0.364,0.338,0.347,0.3
265,1.5,0.887,0.829,0.849,0.923,0.849,0.839,0.835,0.814,0.297,0.347,0.354,0.336,0.305,0.378,0.351,0.359,0.315
266,1.562,0.925,0.863,0.881,0.966,0.881,0.873,0.868,0.849,0.31,0.361,0.369,0.352,0.318,0.392,0.365,0.373,0.329
267,1.607,0.964,0.896,0.913,1.002,0.915,0.908,0.897,0.882,0.324,0.372,0.381,0.366,0.331,0.405,0.379,0.386,0.344
268,1.655,0.995,0.927,0.943,1.028,0.944,0.94,0.926,0.913,0.335,0.381,0.39,0.379,0.343,0.413,0.39,0.396,0.354
269,1.696,1.023,0.948,0.968,1.048,0.967,0.963,0.953,0.936,0.345,0.387,0.396,0.389,0.354,0.419,0.396,0.403,0.364
270,1.76,1.044,0.971,0.995,1.07,0.991,0.988,0.977,0.96,0.354,0.396,0.404,0.4,0.362,0.428,0.405,0.411,0.373
271,1.807,1.064,0.996,1.018,1.098,1.01,1.012,0.998,0.981,0.363,0.404,0.414,0.411,0.372,0.439,0.414,0.42,0.382
272,1.829,1.08,1.013,1.036,1.122,1.028,1.033,1.011,0.997,0.371,0.409,0.422,0.42,0.38,0.449,0.421,0.426,0.391
273,1.848,1.097,1.027,1.044,1.137,1.038,1.04,1.021,1.005,0.377,0.413,0.428,0.427,0.386,0.456,0.425,0.428,0.397
274,1.836,1.099,1.033,1.044,1.138,1.046,1.033,1.023,1.002,0.38,0.414,0.429,0.43,0.389,0.455,0.425,0.429,0.4
275,1.852,1.094,1.03,1.041,1.128,1.049,1.03,1.023,1.004,0.382,0.417,0.43,0.432,0.39,0.454,0.427,0.432,0.402
276,1.835,1.09,1.026,1.037,1.123,1.042,1.025,1.019,1.004,0.383,0.418,0.43,0.433,0.392,0.452,0.426,0.435,0.403
277,1.808,1.078,1.014,1.027,1.117,1.028,1.019,1.005,0.997,0.383,0.416,0.428,0.433,0.393,0.453,0.424,0.434,0.405
278,1.777,1.063,0.998,1.014,1.101,1.008,1.005,0.988,0.976,0.381,0.413,0.427,0.433,0.393,0.453,0.422,0.431,0.404
279,1.733,1.035,0.974,0.99,1.076,0.989,0.984,0.97,0.95,0.38,0.411,0.426,0.432,0.39,0.449,0.422,0.427,0.403
280,1.698,1.011,0.943,0.965,1.048,0.967,0.961,0.947,0.922,0.381,0.414,0.427,0.433,0.391,0.449,0.424,0.428,0.403
281,1.662,0.985,0.918,0.939,1.02,0.94,0.933,0.923,0.9,0.384,0.417,0.431,0.436,0.395,0.451,0.426,0.432,0.405
282,1.612,0.951,0.89,0.907,0.985,0.905,0.899,0.89,0.872,0.387,0.417,0.432,0.438,0.398,0.453,0.425,0.433,0.408
283,1.543,0.909,0.849,0.866,0.939,0.864,0.861,0.85,0.835,0.384,0.412,0.428,0.437,0.395,0.45,0.422,0.429,0.406
284,1.458,0.86,0.803,0.818,0.887,0.818,0.815,0.803,0.792,0.378,0.404,0.419,0.43,0.388,0.441,0.413,0.421,0.399
285,1.368,0.811,0.753,0.771,0.835,0.769,0.766,0.751,0.742,0.368,0.393,0.409,0.418,0.378,0.431,0.404,0.412,0.388
286,1.293,0.756,0.709,0.72,0.78,0.721,0.715,0.704,0.694,0.357,0.383,0.398,0.405,0.367,0.421,0.395,0.402,0.378
287,1.2,0.698,0.657,0.668,0.722,0.665,0.662,0.652,0.642,0.347,0.372,0.386,0.393,0.356,0.408,0.384,0.39,0.367
288,1.097,0.638,0.601,0.61,0.66,0.609,0.606,0.597,0.586,0.336,0.363,0.374,0.382,0.345,0.395,0.374,0.378,0.355
289,0.985,0.58,0.544,0.553,0.599,0.552,0.548,0.54,0.529,0.327,0.354,0.363,0.371,0.334,0.385,0.361,0.368,0.346
290,0.879,0.524,0.49,0.497,0.538,0.498,0.495,0.484,0.478,0.318,0.348,0.356,0.362,0.326,0.379,0.352,0.359,0.336
291,0.78,0.469,0.439,0.443,0.48,0.447,0.443,0.433,0.428,0.307,0.338,0.346,0.35,0.316,0.367,0.343,0.349,0.326
292,0.683,0.414,0.388,0.392,0.423,0.394,0.394,0.381,0.379,0.293,0.321,0.332,0.333,0.303,0.35,0.33,0.336,0.31
293,0.59,0.363,0.34,0.343,0.371,0.344,0.344,0.331,0.33,0.277,0.304,0.317,0.314,0.286,0.332,0.314,0.32,0.292
294,0.508,0.317,0.297,0.3,0.324,0.3,0.3,0.288,0.287,0.26,0.288,0.3,0.295,0.268,0.316,0.297,0.306,0.275
295,0.437,0.277,0.26,0.262,0.282,0.263,0.262,0.25,0.253,0.243,0.274,0.285,0.276,0.251,0.301,0.28,0.288,0.257
296,0.377,0.245,0.229,0.229,0.247,0.232,0.23,0.219,0.222,0.225,0.26,0.267,0.257,0.232,0.284,0.263,0.272,0.24
297,0.326,0.216,0.203,0.202,0.218,0.206,0.203,0.192,0.195,0.208,0.243,0.247,0.238,0.215,0.265,0.245,0.254,0.222
298,0.282,0.19,0.18,0.177,0.195,0.182,0.179,0.167,0.171,0.191,0.223,0.228,0.216,0.197,0.244,0.226,0.234,0.203
299,0.246,0.17,0.16,0.158,0.173,0.162,0.159,0.148,0.154,0.173,0.202,0.208,0.196,0.178,0.224,0.207,0.214,0.184
300,0.217,0.152,0.145,0.143,0.156,0.146,0.145,0.132,0.139,0.155,0.184,0.192,0.176,0.16,0.204,0.189,0.195,0.165
301,0.195,0.142,0.134,0.131,0.143,0.134,0.134,0.12,0.127,0.138,0.167,0.175,0.157,0.142,0.188,0.171,0.179,0.147
302,0.181,0.133,0.126,0.122,0.135,0.127,0.127,0.113,0.119,0.123,0.154,0.16,0.141,0.128,0.173,0.157,0.164,0.132
303,0.172,0.127,0.121,0.116,0.129,0.121,0.121,0.109,0.115,0.11,0.144,0.148,0.125,0.114,0.16,0.145,0.152,0.118
304,0.166,0.124,0.118,0.112,0.126,0.118,0.118,0.106,0.112,0.099,0.134,0.137,0.112,0.103,0.148,0.137,0.142,0.106
305,0.161,0.122,0.115,0.109,0.124,0.117,0.116,0.104,0.11,0.089,0.126,0.13,0.101,0.091,0.138,0.127,0.133,0.095
306,0.156,0.12,0.112,0.107,0.122,0.114,0.114,0.102,0.108,0.082,0.119,0.123,0.093,0.083,0.132,0.119,0.125,0.086
307,0.153,0.119,0.11,0.106,0.122,0.113,0.112,0.1,0.106,0.075,0.113,0.117,0.085,0.077,0.125,0.114,0.118,0.08
308,0.151,0.119,0.109,0.108,0.121,0.111,0.111,0.1,0.105,0.07,0.108,0.111,0.079,0.071,0.119,0.108,0.113,0.074
309,0.15,0.119,0.11,0.108,0.12,0.111,0.109,0.098,0.104,0.065,0.103,0.105,0.074,0.067,0.113,0.104,0.11,0.07
310,0.15,0.119,0.109,0.107,0.119,0.111,0.108,0.096,0.104,0.062,0.099,0.1,0.07,0.062,0.11,0.099,0.107,0.066
311,0.15,0.119,0.108,0.106,0.118,0.11,0.108,0.095,0.105,0.06,0.096,0.098,0.068,0.06,0.108,0.097,0.104,0.064
312,0.15,0.118,0.108,0.106,0.118,0.11,0.108,0.097,0.104,0.058,0.093,0.098,0.065,0.058,0.105,0.094,0.101,0.062
313,0.151,0.116,0.108,0.107,0.12,0.11,0.109,0.097,0.103,0.055,0.092,0.097,0.062,0.056,0.101,0.091,0.099,0.059
314,0.153,0.117,0.109,0.107,0.121,0.111,0.11,0.099,0.102,0.053,0.091,0.095,0.06,0.054,0.1,0.09,0.098,0.057
315,0.154,0.117,0.111,0.107,0.122,0.112,0.111,0.099,0.103,0.051,0.089,0.091,0.059,0.053,0.099,0.09,0.097,0.055
316,0.155,0.117,0.112,0.106,0.123,0.113,0.111,0.098,0.104,0.052,0.089,0.09,0.06,0.053,0.099,0.09,0.095,0.055
317,0.157,0.118,0.113,0.107,0.124,0.114,0.113,0.1,0.106,0.054,0.088,0.091,0.06,0.054,0.099,0.09,0.093,0.056
318,0.162,0.119,0.114,0.11,0.127,0.117,0.114,0.101,0.107,0.054,0.087,0.091,0.06,0.054,0.098,0.089,0.094,0.055
319,0.166,0.121,0.115,0.114,0.128,0.12,0.115,0.102,0.109,0.053,0.088,0.092,0.06,0.054,0.097,0.088,0.095,0.055
320,0.167,0.123,0.116,0.114,0.129,0.12,0.116,0.103,0.109,0.052,0.088,0.09,0.06,0.053,0.095,0.087,0.095,0.055
321,0.167,0.124,0.113,0.113,0.131,0.118,0.116,0.106,0.111,0.052,0.09,0.089,0.06,0.054,0.095,0.086,0.093,0.055
322,0.168,0.127,0.114,0.112,0.134,0.12,0.118,0.109,0.114,0.053,0.089,0.09,0.059,0.054,0.098,0.088,0.09,0.056
323,0.171,0.128,0.117,0.113,0.135,0.121,0.12,0.111,0.115,0.054,0.088,0.091,0.058,0.053,0.099,0.089,0.09,0.055
324,0.173,0.127,0.121,0.114,0.135,0.121,0.12,0.109,0.114,0.053,0.087,0.091,0.058,0.052,0.098,0.087,0.092,0.055
325,0.176,0.128,0.123,0.114,0.135,0.121,0.121,0.108,0.113,0.052,0.087,0.09,0.059,0.052,0.096,0.085,0.093,0.054
326,0.177,0.128,0.122,0.118,0.138,0.12,0.12,0.108,0.114,0.052,0.087,0.089,0.059,0.053,0.097,0.085,0.094,0.055
327,0.179,0.13,0.123,0.118,0.14,0.123,0.121,0.11,0.116,0.053,0.086,0.089,0.06,0.054,0.098,0.086,0.093,0.056
328,0.179,0.131,0.121,0.117,0.14,0.123,0.122,0.111,0.115,0.052,0.084,0.088,0.06,0.054,0.097,0.085,0.09,0.056
329,0.181,0.13,0.122,0.117,0.138,0.122,0.121,0.11,0.115,0.051,0.083,0.086,0.059,0.052,0.094,0.084,0.089,0.055
330,0.186,0.13,0.123,0.118,0.14,0.123,0.122,0.112,0.116,0.052,0.084,0.085,0.059,0.053,0.094,0.083,0.091,0.055
331,0.188,0.133,0.125,0.122,0.142,0.123,0.123,0.113,0.117,0.054,0.086,0.085,0.059,0.055,0.095,0.085,0.093,0.056
332,0.191,0.136,0.126,0.123,0.143,0.127,0.125,0.114,0.121,0.055,0.087,0.087,0.061,0.055,0.098,0.086,0.095,0.057
333,0.193,0.137,0.126,0.123,0.145,0.129,0.127,0.114,0.123,0.053,0.088,0.09,0.06,0.053,0.099,0.086,0.093,0.056
334,0.196,0.138,0.129,0.124,0.146,0.131,0.128,0.115,0.124,0.052,0.089,0.09,0.06,0.052,0.097,0.088,0.094,0.055
335,0.195,0.136,0.128,0.124,0.146,0.128,0.127,0.116,0.121,0.052,0.088,0.087,0.06,0.053,0.095,0.085,0.092,0.055
336,0.192,0.134,0.126,0.123,0.146,0.124,0.127,0.115,0.119,0.052,0.084,0.084,0.06,0.054,0.092,0.085,0.09,0.055
337,0.191,0.134,0.124,0.121,0.144,0.123,0.126,0.115,0.117,0.052,0.081,0.082,0.06,0.053,0.09,0.081,0.09,0.054
338,0.192,0.135,0.124,0.121,0.145,0.123,0.126,0.114,0.119,0.051,0.08,0.081,0.058,0.051,0.091,0.08,0.089,0.054
339,0.194,0.138,0.126,0.123,0.147,0.125,0.128,0.114,0.122,0.052,0.082,0.084,0.058,0.051,0.092,0.081,0.091,0.054
340,0.194,0.136,0.126,0.123,0.147,0.126,0.127,0.114,0.121,0.052,0.081,0.083,0.057,0.052,0.094,0.081,0.089,0.054
341,0.193,0.134,0.126,0.124,0.147,0.125,0.128,0.115,0.119,0.051,0.081,0.083,0.057,0.053,0.094,0.083,0.088,0.054
342,0.193,0.133,0.125,0.121,0.145,0.125,0.125,0.116,0.117,0.049,0.08,0.08,0.056,0.051,0.091,0.082,0.085,0.052
343,0.193,0.134,0.122,0.118,0.143,0.124,0.123,0.116,0.116,0.048,0.079,0.078,0.056,0.05,0.088,0.081,0.084,0.051
344,0.191,0.135,0.12,0.118,0.143,0.125,0.123,0.113,0.116,0.048,0.079,0.08,0.055,0.05,0.085,0.081,0.085,0.051
345,0.19,0.134,0.119,0.118,0.144,0.125,0.124,0.112,0.117,0.048,0.078,0.081,0.055,0.049,0.086,0.082,0.085,0.051
346,0.187,0.133,0.121,0.119,0.143,0.123,0.125,0.11,0.116,0.048,0.078,0.08,0.055,0.05,0.086,0.08,0.086,0.051
347,0.184,0.13,0.119,0.116,0.139,0.121,0.121,0.108,0.111,0.047,0.075,0.079,0.053,0.048,0.084,0.076,0.084,0.05
348,0.184,0.126,0.118,0.113,0.133,0.117,0.118,0.109,0.108,0.045,0.074,0.077,0.051,0.046,0.082,0.074,0.083,0.048
349,0.182,0.125,0.118,0.114,0.13,0.116,0.117,0.108,0.109,0.044,0.075,0.077,0.05,0.045,0.081,0.075,0.082,0.048
350,0.178,0.124,0.119,0.113,0.131,0.116,0.117,0.108,0.111,0.045,0.075,0.075,0.05,0.046,0.081,0.076,0.083,0.047
351,0.175,0.123,0.118,0.111,0.129,0.115,0.116,0.105,0.109,0.045,0.072,0.073,0.05,0.045,0.08,0.074,0.081,0.047
352,0.171,0.123,0.113,0.107,0.128,0.114,0.114,0.102,0.105,0.044,0.07,0.071,0.049,0.043,0.08,0.071,0.078,0.045
353,0.169,0.12,0.109,0.103,0.125,0.11,0.111,0.1,0.102,0.041,0.069,0.07,0.047,0.04,0.077,0.069,0.075,0.044
354,0.166,0.12,0.106,0.101,0.124,0.109,0.109,0.097,0.101,0.039,0.07,0.07,0.045,0.039,0.076,0.068,0.075,0.042
355,0.162,0.116,0.104,0.101,0.122,0.108,0.108,0.096,0.101,0.038,0.07,0.069,0.045,0.039,0.075,0.068,0.075,0.041
356,0.16,0.113,0.104,0.102,0.119,0.107,0.107,0.095,0.101,0.037,0.069,0.069,0.044,0.038,0.076,0.068,0.074,0.04
357,0.156,0.111,0.103,0.1,0.117,0.103,0.105,0.094,0.099,0.036,0.068,0.067,0.043,0.036,0.075,0.066,0.071,0.039
358,0.152,0.106,0.1,0.096,0.112,0.102,0.1,0.092,0.095,0.035,0.065,0.066,0.041,0.034,0.072,0.063,0.067,0.038
359,0.148,0.106,0.098,0.094,0.111,0.099,0.098,0.091,0.093,0.035,0.065,0.064,0.039,0.034,0.07,0.062,0.067,0.037
360,0.145,0.104,0.095,0.092,0.108,0.097,0.097,0.09,0.09,0.033,0.064,0.063,0.039,0.033,0.069,0.062,0.067,0.037
361,0.141,0.1,0.094,0.089,0.105,0.093,0.093,0.087,0.089,0.032,0.062,0.061,0.038,0.032,0.066,0.061,0.067,0.035
362,0.134,0.096,0.09,0.085,0.1,0.088,0.088,0.082,0.085,0.031,0.058,0.058,0.037,0.03,0.064,0.057,0.063,0.035
363,0.128,0.091,0.084,0.08,0.096,0.086,0.084,0.076,0.08,0.03,0.054,0.057,0.035,0.03,0.062,0.052,0.059,0.033
364,0.122,0.09,0.081,0.078,0.094,0.083,0.084,0.075,0.076,0.028,0.052,0.055,0.033,0.028,0.06,0.051,0.057,0.031
365,0.12,0.088,0.079,0.078,0.092,0.082,0.084,0.074,0.075,0.026,0.051,0.055,0.031,0.025,0.059,0.051,0.057,0.029
366,0.118,0.087,0.08,0.077,0.089,0.082,0.083,0.073,0.076,0.025,0.052,0.053,0.029,0.023,0.06,0.052,0.057,0.028
367,0.113,0.083,0.077,0.074,0.086,0.078,0.079,0.07,0.074,0.024,0.052,0.051,0.026,0.022,0.059,0.049,0.057,0.026
368,0.107,0.081,0.074,0.071,0.084,0.074,0.076,0.068,0.071,0.024,0.052,0.049,0.026,0.022,0.057,0.048,0.056,0.025
369,0.101,0.079,0.072,0.07,0.082,0.072,0.073,0.066,0.069,0.022,0.049,0.047,0.025,0.02,0.054,0.049,0.053,0.024
370,0.098,0.077,0.071,0.07,0.08,0.072,0.072,0.064,0.067,0.021,0.046,0.047,0.024,0.019,0.052,0.048,0.051,0.022
371,0.096,0.075,0.069,0.068,0.081,0.072,0.073,0.062,0.066,0.021,0.044,0.046,0.023,0.019,0.053,0.046,0.05,0.021
372,0.092,0.071,0.066,0.065,0.077,0.068,0.072,0.059,0.063,0.019,0.044,0.045,0.021,0.018,0.051,0.045,0.051,0.019
373,0.088,0.071,0.064,0.064,0.075,0.066,0.069,0.056,0.062,0.018,0.045,0.044,0.02,0.017,0.05,0.045,0.051,0.019
374,0.084,0.07,0.061,0.061,0.07,0.063,0.064,0.052,0.059,0.016,0.043,0.043,0.018,0.015,0.047,0.042,0.048,0.018
375,0.081,0.066,0.058,0.058,0.067,0.06,0.061,0.051,0.055,0.014,0.041,0.041,0.016,0.014,0.045,0.039,0.044,0.017
376,0.078,0.063,0.056,0.056,0.065,0.058,0.061,0.052,0.055,0.013,0.04,0.038,0.013,0.012,0.045,0.038,0.043,0.015
377,0.074,0.059,0.054,0.053,0.063,0.055,0.059,0.051,0.052,0.012,0.038,0.037,0.012,0.01,0.043,0.037,0.042,0.013
378,0.068,0.058,0.052,0.05,0.062,0.054,0.056,0.049,0.049,0.011,0.038,0.035,0.012,0.009,0.042,0.036,0.041,0.013
379,0.064,0.055,0.05,0.048,0.06,0.052,0.053,0.045,0.047,0.01,0.036,0.036,0.012,0.009,0.041,0.034,0.041,0.013
380,0.063,0.053,0.049,0.046,0.058,0.05,0.051,0.042,0.047,0.01,0.035,0.034,0.011,0.01,0.041,0.033,0.041,0.013
381,0.061,0.053,0.047,0.046,0.055,0.05,0.05,0.041,0.047,0.01,0.034,0.033,0.01,0.008,0.042,0.033,0.04,0.011
382,0.057,0.051,0.044,0.045,0.053,0.047,0.048,0.04,0.044,0.008,0.032,0.032,0.009,0.007,0.039,0.032,0.037,0.01
383,0.054,0.05,0.044,0.043,0.052,0.045,0.048,0.04,0.041,0.007,0.032,0.031,0.008,0.006,0.036,0.032,0.036,0.009
384,0.052,0.047,0.043,0.042,0.051,0.043,0.048,0.038,0.039,0.006,0.031,0.031,0.008,0.005,0.035,0.029,0.036,0.008
385,0.048,0.045,0.042,0.038,0.049,0.04,0.044,0.035,0.039,0.005,0.03,0.03,0.006,0.003,0.034,0.028,0.036,0.006
386,0.046,0.041,0.04,0.036,0.048,0.039,0.041,0.033,0.038,0.005,0.029,0.029,0.005,0.002,0.033,0.027,0.035,0.006
387,0.042,0.04,0.038,0.035,0.047,0.039,0.04,0.031,0.038,0.004,0.029,0.029,0.005,0.003,0.033,0.029,0.033,0.007
388,0.041,0.041,0.038,0.035,0.045,0.039,0.04,0.032,0.038,0.004,0.029,0.027,0.005,0.003,0.032,0.029,0.033,0.007
389,0.04,0.039,0.035,0.033,0.041,0.038,0.038,0.031,0.034,0.003,0.028,0.027,0.005,0.002,0.03,0.028,0.032,0.006
390,0.038,0.037,0.034,0.031,0.04,0.037,0.036,0.03,0.032,0.002,0.027,0.027,0.003,0.001,0.031,0.028,0.03,0.003
391,0.036,0.034,0.033,0.03,0.041,0.036,0.035,0.029,0.031,0.001,0.026,0.027,0.002,0.001,0.032,0.025,0.03,0.004
392,0.032,0.032,0.031,0.028,0.038,0.033,0.032,0.027,0.029,0.0,0.023,0.026,0.002,0.0,0.031,0.023,0.029,0.003
393,0.03,0.031,0.028,0.026,0.036,0.031,0.032,0.025,0.027,-0.001,0.021,0.022,0.0,-0.002,0.029,0.022,0.029,0.002
394,0.028,0.031,0.025,0.023,0.034,0.029,0.03,0.024,0.024,-0.002,0.02,0.021,-0.001,-0.003,0.027,0.021,0.027,0.001
395,0.026,0.031,0.026,0.022,0.032,0.029,0.031,0.024,0.023,-0.001,0.02,0.02,-0.002,-0.003,0.026,0.02,0.024,0.0
396,0.023,0.028,0.025,0.023,0.031,0.027,0.03,0.021,0.023,0.0,0.019,0.019,-0.001,-0.003,0.027,0.018,0.023,0.001
397,0.019,0.025,0.024,0.022,0.03,0.026,0.027,0.02,0.022,0.001,0.019,0.018,0.0,-0.001,0.026,0.018,0.023,0.001
398,0.02,0.027,0.025,0.023,0.033,0.027,0.028,0.02,0.024,0.002,0.021,0.02,0.001,0.0,0.026,0.019,0.024,0.001
399,0.021,0.029,0.025,0.022,0.032,0.028,0.028,0.021,0.024,0.001,0.021,0.02,0.0,0.0,0.026,0.019,0.024,0.001
400,0.021,0.029,0.025,0.021,0.031,0.026,0.026,0.02,0.023,-0.001,0.021,0.019,-0.002,-0.001,0.025,0.018,0.023,0.0
401,0.019,0.027,0.023,0.02,0.03,0.024,0.025,0.018,0.022,0.0,0.021,0.017,-0.001,-0.001,0.027,0.018,0.025,0.001
402,0.017,0.025,0.023,0.019,0.028,0.023,0.024,0.016,0.022,0.001,0.02,0.018,0.0,-0.001,0.026,0.017,0.025,0.001
403,0.018,0.024,0.022,0.019,0.028,0.024,0.025,0.016,0.022,0.001,0.02,0.018,-0.001,-0.002,0.025,0.018,0.025,0.002
404,0.018,0.023,0.021,0.017,0.027,0.023,0.025,0.017,0.021,-0.002,0.018,0.017,-0.002,-0.004,0.024,0.016,0.022,0.0
405,0.016,0.023,0.021,0.015,0.027,0.02,0.024,0.016,0.02,-0.003,0.017,0.017,-0.003,-0.004,0.022,0.016,0.02,-0.002
406,0.015,0.023,0.02,0.016,0.027,0.021,0.026,0.017,0.02,-0.002,0.015,0.017,-0.002,-0.003,0.021,0.017,0.021,-0.002
407,0.016,0.022,0.021,0.018,0.026,0.021,0.025,0.016,0.02,-0.001,0.015,0.016,-0.002,-0.002,0.02,0.018,0.021,-0.002
408,0.015,0.021,0.02,0.018,0.025,0.022,0.025,0.015,0.018,-0.001,0.016,0.013,-0.002,-0.002,0.02,0.018,0.021,-0.002
409,0.016,0.021,0.019,0.017,0.023,0.021,0.023,0.016,0.018,-0.002,0.017,0.013,-0.001,-0.003,0.021,0.016,0.019,-0.002
410,0.014,0.02,0.018,0.016,0.022,0.019,0.022,0.014,0.018,-0.001,0.016,0.015,-0.001,-0.003,0.021,0.015,0.02,-0.001
411,0.013,0.021,0.018,0.016,0.024,0.021,0.021,0.014,0.019,-0.001,0.015,0.017,-0.001,-0.003,0.021,0.015,0.02,-0.001
412,0.012,0.021,0.017,0.015,0.024,0.019,0.021,0.014,0.017,-0.001,0.015,0.016,-0.001,-0.002,0.021,0.015,0.018,0.0
413,0.011,0.021,0.018,0.014,0.024,0.019,0.022,0.015,0.015,-0.001,0.015,0.016,-0.002,-0.003,0.021,0.015,0.018,-0.001
414,0.011,0.021,0.018,0.015,0.022,0.018,0.021,0.016,0.015,-0.002,0.014,0.014,-0.002,-0.003,0.02,0.014,0.02,-0.001
415,0.012,0.019,0.019,0.015,0.021,0.02,0.021,0.015,0.016,-0.002,0.013,0.013,-0.003,-0.003,0.02,0.013,0.02,-0.002
416,0.013,0.018,0.017,0.014,0.022,0.02,0.02,0.014,0.015,-0.002,0.013,0.012,-0.004,-0.003,0.017,0.011,0.019,-0.002
417,0.012,0.018,0.015,0.013,0.023,0.018,0.018,0.011,0.015,-0.004,0.012,0.012,-0.004,-0.004,0.016,0.01,0.017,-0.003
418,0.012,0.018,0.016,0.013,0.022,0.018,0.019,0.01,0.017,-0.002,0.013,0.013,-0.003,-0.004,0.017,0.012,0.018,-0.001
419,0.012,0.018,0.015,0.012,0.021,0.018,0.017,0.01,0.017,-0.002,0.013,0.013,-0.003,-0.004,0.018,0.013,0.018,0.0
420,0.01,0.017,0.015,0.011,0.02,0.019,0.017,0.01,0.016,-0.001,0.013,0.014,-0.002,-0.002,0.018,0.013,0.017,0.0
421,0.007,0.015,0.012,0.007,0.017,0.016,0.015,0.009,0.012,-0.001,0.009,0.009,-0.003,-0.001,0.014,0.009,0.015,-0.001
422,0.004,0.012,0.01,0.005,0.014,0.012,0.012,0.006,0.009,-0.002,0.006,0.006,-0.004,-0.001,0.013,0.006,0.013,-0.002
423,0.004,0.012,0.008,0.004,0.013,0.012,0.011,0.003,0.008,-0.001,0.005,0.005,-0.003,-0.001,0.012,0.005,0.012,-0.001
424,0.004,0.011,0.008,0.004,0.012,0.011,0.01,0.003,0.007,-0.001,0.005,0.005,-0.003,-0.001,0.011,0.005,0.008,-0.001
425,0.002,0.009,0.007,0.004,0.012,0.01,0.01,0.003,0.006,0.0,0.005,0.005,-0.003,-0.001,0.01,0.004,0.007,-0.001
426,0.001,0.009,0.006,0.004,0.012,0.009,0.012,0.003,0.006,0.0,0.004,0.004,-0.002,-0.001,0.01,0.004,0.007,0.0
427,0.0,0.009,0.006,0.003,0.013,0.01,0.011,0.003,0.007,-0.001,0.004,0.005,-0.002,-0.001,0.011,0.005,0.008,0.0
428,0.001,0.01,0.007,0.003,0.014,0.012,0.011,0.003,0.009,-0.002,0.005,0.005,-0.001,-0.002,0.011,0.005,0.009,0.0
429,0.001,0.011,0.008,0.004,0.015,0.012,0.011,0.004,0.009,-0.001,0.007,0.006,-0.002,-0.002,0.011,0.006,0.01,0.0
430,0.0,0.011,0.011,0.006,0.015,0.012,0.012,0.004,0.008,-0.002,0.008,0.007,-0.002,-0.003,0.012,0.005,0.011,-0.001
431,0.001,0.011,0.011,0.007,0.014,0.013,0.014,0.004,0.008,-0.002,0.008,0.007,-0.002,-0.002,0.013,0.006,0.012,-0.001
432,0.001,0.009,0.008,0.005,0.013,0.011,0.013,0.003,0.007,-0.003,0.006,0.006,-0.003,-0.002,0.012,0.003,0.009,-0.002
433,0.003,0.009,0.008,0.005,0.013,0.011,0.012,0.004,0.01,-0.001,0.007,0.005,-0.003,0.0,0.012,0.003,0.009,-0.001
434,0.003,0.009,0.008,0.005,0.013,0.011,0.013,0.004,0.01,0.0,0.006,0.006,-0.001,-0.001,0.011,0.005,0.009,0.001
435,0.002,0.01,0.008,0.005,0.012,0.011,0.012,0.002,0.009,0.0,0.005,0.006,-0.001,-0.001,0.011,0.004,0.01,0.001
436,0.002,0.01,0.007,0.005,0.013,0.011,0.013,0.002,0.008,0.001,0.005,0.007,0.0,0.0,0.009,0.006,0.009,0.002
437,0.0,0.009,0.006,0.005,0.012,0.01,0.011,0.001,0.008,0.001,0.004,0.006,-0.001,0.0,0.008,0.005,0.008,0.001
438,-0.001,0.01,0.007,0.005,0.012,0.011,0.012,0.002,0.008,0.0,0.005,0.005,-0.002,-0.001,0.009,0.004,0.008,0.0
439,-0.002,0.009,0.006,0.005,0.012,0.012,0.01,0.002,0.008,-0.001,0.004,0.004,-0.003,-0.002,0.01,0.004,0.008,-0.001
440,-0.001,0.011,0.008,0.004,0.013,0.011,0.01,0.002,0.008,-0.002,0.005,0.004,-0.002,-0.001,0.01,0.005,0.009,0.0
441,0.0,0.01,0.008,0.003,0.012,0.009,0.01,0.002,0.007,0.0,0.004,0.005,0.0,0.002,0.01,0.003,0.009,0.002
442,-0.002,0.008,0.006,0.0,0.01,0.007,0.009,0.0,0.004,0.0,0.002,0.004,0.0,0.002,0.008,0.001,0.006,0.002
443,-0.003,0.008,0.006,0.002,0.009,0.007,0.01,0.0,0.004,0.001,0.002,0.003,0.0,0.002,0.009,0.0,0.007,0.002
444,-0.002,0.009,0.006,0.004,0.01,0.009,0.011,0.0,0.005,0.001,0.003,0.003,0.0,0.002,0.01,0.001,0.009,0.001
445,-0.002,0.01,0.009,0.005,0.013,0.011,0.013,0.003,0.007,0.0,0.005,0.003,-0.001,0.001,0.011,0.003,0.01,0.001
446,-0.002,0.009,0.009,0.003,0.013,0.01,0.012,0.003,0.008,-0.001,0.005,0.004,-0.001,0.0,0.011,0.002,0.01,0.0
447,-0.005,0.006,0.007,0.001,0.011,0.008,0.009,0.001,0.005,-0.002,0.003,0.003,-0.002,0.0,0.008,0.0,0.009,0.0
448,-0.007,0.003,0.004,0.0,0.008,0.006,0.005,-0.002,0.002,-0.002,0.001,0.001,-0.003,0.0,0.006,-0.002,0.005,0.0
449,-0.007,0.002,0.001,-0.001,0.005,0.005,0.003,-0.004,0.0,0.0,-0.003,-0.001,-0.003,0.0,0.005,-0.005,0.002,0.0
450,-0.007,0.004,0.001,-0.001,0.004,0.004,0.003,-0.005,0.0,0.001,-0.004,-0.002,-0.002,0.001,0.005,-0.005,0.001,0.001
451,-0.007,0.005,0.0,-0.002,0.006,0.005,0.003,-0.005,0.001,0.002,-0.004,-0.002,-0.001,0.002,0.005,-0.004,0.001,0.001
452,-0.006,0.004,0.001,-0.002,0.006,0.005,0.004,-0.004,0.0,0.001,-0.003,-0.001,0.001,0.003,0.003,-0.003,0.003,0.002
453,-0.008,0.002,0.001,-0.004,0.005,0.004,0.003,-0.004,0.0,0.001,-0.003,-0.001,0.001,0.003,0.003,-0.004,0.002,0.002
454,-0.01,0.0,-0.002,-0.005,0.004,0.002,0.002,-0.006,-0.002,0.001,-0.004,-0.001,0.001,0.003,0.004,-0.006,0.001,0.002
455,-0.011,-0.002,-0.004,-0.005,0.001,0.0,0.001,-0.008,-0.004,0.003,-0.005,-0.003,0.001,0.003,0.003,-0.008,0.0,0.003
456,-0.012,-0.003,-0.006,-0.006,-0.001,0.0,-0.001,-0.01,-0.004,0.003,-0.007,-0.004,0.0,0.004,0.002,-0.007,0.0,0.003
457,-0.011,-0.004,-0.005,-0.006,0.0,0.0,0.0,-0.011,-0.003,0.001,-0.007,-0.004,-0.001,0.002,0.001,-0.006,-0.001,0.002
458,-0.009,-0.001,-0.001,-0.003,0.004,0.003,0.002,-0.009,0.0,0.0,-0.005,-0.003,-0.003,0.001,0.003,-0.004,0.0,0.0
459,-0.006,0.002,0.001,-0.002,0.006,0.005,0.003,-0.006,0.001,0.0,-0.003,-0.002,-0.002,0.0,0.002,-0.004,0.001,0.001
460,-0.008,0.002,0.001,-0.002,0.003,0.004,0.003,-0.007,-0.001,0.002,-0.004,-0.003,0.0,0.001,0.001,-0.006,0.001,0.002
461,-0.012,-0.001,-0.002,-0.005,-0.002,0.0,0.0,-0.011,-0.002,0.003,-0.008,-0.005,0.001,0.003,0.0,-0.008,0.0,0.002
462,-0.014,-0.004,-0.003,-0.008,-0.003,-0.001,0.0,-0.012,-0.003,0.003,-0.008,-0.004,0.002,0.006,-0.001,-0.009,-0.002,0.003
463,-0.012,-0.003,-0.002,-0.006,0.0,0.001,0.001,-0.009,-0.002,0.003,-0.006,-0.003,0.002,0.006,0.002,-0.008,-0.001,0.003
464,-0.01,-0.002,-0.002,-0.006,0.001,0.003,0.002,-0.009,-0.002,0.003,-0.005,-0.003,0.002,0.007,0.002,-0.006,0.0,0.002
465,-0.009,-0.002,-0.002,-0.006,0.0,0.003,0.002,-0.009,-0.002,0.004,-0.006,-0.004,0.002,0.008,0.003,-0.007,-0.001,0.003
466,-0.01,-0.002,-0.002,-0.005,-0.001,0.002,0.001,-0.008,-0.002,0.004,-0.007,-0.004,0.001,0.007,0.002,-0.009,-0.001,0.003
467,-0.012,-0.002,-0.001,-0.004,0.001,0.003,0.002,-0.006,-0.001,0.005,-0.005,-0.002,0.002,0.007,0.002,-0.008,0.0,0.005
468,-0.012,-0.002,-0.001,-0.003,0.003,0.003,0.003,-0.006,-0.001,0.006,-0.005,-0.002,0.004,0.008,0.003,-0.007,0.002,0.006
469,-0.013,-0.004,-0.002,-0.004,0.002,0.003,0.003,-0.009,0.0,0.006,-0.005,-0.001,0.005,0.009,0.004,-0.006,0.002,0.006
470,-0.013,-0.003,-0.001,-0.005,0.001,0.004,0.003,-0.011,0.0,0.005,-0.006,0.0,0.005,0.01,0.005,-0.007,0.001,0.006
471,-0.012,-0.002,0.0,-0.003,0.0,0.004,0.003,-0.01,0.0,0.005,-0.005,0.001,0.003,0.01,0.005,-0.006,0.001,0.005
472,-0.01,-0.001,-0.001,-0.002,0.002,0.004,0.004,-0.007,0.001,0.005,-0.003,0.001,0.003,0.009,0.006,-0.004,0.003,0.005
473,-0.008,0.0,-0.001,-0.001,0.005,0.005,0.004,-0.005,0.001,0.005,-0.002,0.0,0.003,0.009,0.006,-0.003,0.003,0.005
474,-0.008,0.0,-0.001,-0.001,0.005,0.007,0.003,-0.005,0.001,0.005,-0.002,-0.001,0.004,0.009,0.006,-0.003,0.003,0.004
475,-0.009,0.0,0.0,-0.002,0.004,0.005,0.002,-0.007,0.0,0.005,-0.003,-0.003,0.003,0.01,0.005,-0.005,0.001,0.005
476,-0.011,-0.001,0.0,-0.002,0.003,0.004,0.002,-0.007,0.001,0.005,-0.005,-0.002,0.003,0.011,0.004,-0.006,-0.001,0.006
477,-0.012,-0.002,-0.001,-0.003,0.003,0.003,0.002,-0.007,0.0,0.004,-0.006,-0.002,0.002,0.009,0.003,-0.006,-0.001,0.006
478,-0.012,-0.003,-0.003,-0.004,0.001,0.002,0.003,-0.008,-0.001,0.004,-0.006,-0.002,0.002,0.009,0.002,-0.007,0.0,0.005
479,-0.01,-0.004,-0.004,-0.004,0.001,0.003,0.003,-0.008,-0.002,0.004,-0.007,-0.003,0.003,0.009,0.002,-0.008,0.0,0.005
480,-0.011,-0.004,-0.005,-0.005,0.0,0.002,0.001,-0.008,-0.004,0.005,-0.007,-0.004,0.004,0.01,0.002,-0.009,-0.002,0.006
481,-0.013,-0.004,-0.005,-0.006,0.0,0.002,-0.001,-0.01,-0.005,0.006,-0.008,-0.003,0.004,0.011,0.001,-0.009,-0.002,0.006
482,-0.013,0.0,-0.001,-0.002,0.003,0.004,0.001,-0.008,-0.001,0.005,-0.006,-0.001,0.002,0.009,0.003,-0.006,0.0,0.004
483,-0.011,0.001,0.001,0.0,0.005,0.005,0.004,-0.006,0.001,0.003,-0.004,0.0,0.0,0.006,0.005,-0.004,0.002,0.002
484,-0.012,-0.003,-0.001,-0.002,0.003,0.003,0.001,-0.007,-0.001,0.003,-0.006,-0.003,0.002,0.008,0.003,-0.007,-0.002,0.004
485,-0.018,-0.009,-0.007,-0.009,-0.004,-0.003,-0.004,-0.014,-0.007,0.004,-0.012,-0.008,0.005,0.011,-0.003,-0.012,-0.006,0.007
486,-0.018,-0.01,-0.009,-0.01,-0.005,-0.003,-0.005,-0.017,-0.007,0.006,-0.012,-0.008,0.006,0.013,-0.003,-0.013,-0.007,0.008
487,-0.015,-0.007,-0.006,-0.008,-0.002,-0.001,-0.003,-0.014,-0.005,0.005,-0.01,-0.005,0.005,0.011,-0.001,-0.011,-0.004,0.007
488,-0.015,-0.007,-0.005,-0.007,-0.002,-0.001,-0.002,-0.014,-0.005,0.005,-0.008,-0.006,0.005,0.011,0.0,-0.011,-0.003,0.006
489,-0.019,-0.009,-0.007,-0.009,-0.003,-0.002,-0.004,-0.017,-0.007,0.007,-0.011,-0.009,0.006,0.013,-0.004,-0.013,-0.005,0.007
490,-0.02,-0.008,-0.006,-0.008,-0.003,-0.002,-0.004,-0.016,-0.006,0.007,-0.011,-0.008,0.006,0.016,-0.003,-0.012,-0.005,0.007
491,-0.016,-0.005,-0.003,-0.005,0.0,0.0,-0.002,-0.013,-0.003,0.007,-0.009,-0.004,0.006,0.016,0.0,-0.009,-0.002,0.008
492,-0.017,-0.007,-0.004,-0.005,-0.001,-0.001,-0.002,-0.014,-0.004,0.008,-0.009,-0.004,0.007,0.016,0.0,-0.01,-0.003,0.008
493,-0.021,-0.01,-0.008,-0.008,-0.006,-0.004,-0.005,-0.017,-0.008,0.01,-0.012,-0.007,0.008,0.018,-0.003,-0.013,-0.007,0.01
494,-0.022,-0.013,-0.01,-0.011,-0.008,-0.007,-0.008,-0.02,-0.011,0.011,-0.015,-0.01,0.01,0.02,-0.007,-0.016,-0.009,0.011
495,-0.018,-0.012,-0.007,-0.01,-0.006,-0.004,-0.006,-0.017,-0.008,0.011,-0.014,-0.008,0.01,0.019,-0.006,-0.014,-0.008,0.011
496,-0.015,-0.009,-0.005,-0.009,-0.004,-0.002,-0.004,-0.015,-0.006,0.01,-0.011,-0.005,0.009,0.016,-0.004,-0.013,-0.005,0.01
497,-0.016,-0.007,-0.006,-0.009,-0.003,-0.002,-0.004,-0.015,-0.006,0.008,-0.011,-0.006,0.007,0.015,-0.003,-0.014,-0.006,0.009
498,-0.017,-0.006,-0.006,-0.009,-0.004,-0.003,-0.005,-0.016,-0.008,0.009,-0.011,-0.006,0.008,0.016,-0.003,-0.014,-0.007,0.01
499,-0.017,-0.007,-0.005,-0.007,-0.004,-0.005,-0.005,-0.016,-0.008,0.009,-0.011,-0.007,0.008,0.017,-0.002,-0.013,-0.007,0.01
500,-0.018,-0.008,-0.005,-0.007,-0.003,-0.004,-0.004,-0.016,-0.006,0.009,-0.011,-0.006,0.009,0.017,-0.002,-0.012,-0.006,0.01
501,-0.019,-0.009,-0.005,-0.007,-0.003,-0.002,-0.004,-0.016,-0.005,0.009,-0.012,-0.007,0.008,0.017,-0.002,-0.012,-0.006,0.01
502,-0.019,-0.008,-0.007,-0.01,-0.004,-0.003,-0.004,-0.017,-0.005,0.009,-0.012,-0.008,0.007,0.017,-0.002,-0.013,-0.007,0.01
503,-0.019,-0.007,-0.007,-0.008,-0.005,-0.001,-0.004,-0.017,-0.005,0.009,-0.011,-0.007,0.007,0.018,0.0,-0.013,-0.007,0.01
504,-0.02,-0.008,-0.007,-0.008,-0.005,-0.002,-0.006,-0.017,-0.006,0.009,-0.01,-0.007,0.007,0.018,-0.001,-0.015,-0.006,0.01
505,-0.022,-0.009,-0.007,-0.008,-0.005,-0.002,-0.006,-0.017,-0.008,0.01,-0.011,-0.007,0.008,0.019,-0.002,-0.015,-0.006,0.01
506,-0.02,-0.011,-0.006,-0.008,-0.004,-0.002,-0.008,-0.017,-0.009,0.011,-0.012,-0.007,0.008,0.019,-0.005,-0.015,-0.007,0.01
507,-0.02,-0.01,-0.009,-0.011,-0.005,-0.004,-0.007,-0.018,-0.01,0.01,-0.013,-0.008,0.008,0.018,-0.005,-0.015,-0.007,0.01
508,-0.019,-0.01,-0.008,-0.01,-0.005,-0.004,-0.006,-0.018,-0.01,0.01,-0.014,-0.007,0.008,0.018,-0.003,-0.014,-0.006,0.01
509,-0.019,-0.008,-0.007,-0.009,-0.004,-0.003,-0.005,-0.017,-0.01,0.011,-0.014,-0.006,0.009,0.019,-0.002,-0.014,-0.005,0.011
510,-0.019,-0.009,-0.006,-0.008,-0.005,-0.003,-0.005,-0.018,-0.009,0.012,-0.014,-0.007,0.01,0.019,-0.002,-0.014,-0.007,0.011
511,-0.02,-0.012,-0.006,-0.008,-0.007,-0.002,-0.006,-0.018,-0.009,0.011,-0.015,-0.008,0.009,0.018,-0.004,-0.014,-0.008,0.011
512,-0.02,-0.012,-0.008,-0.009,-0.007,-0.003,-0.006,-0.018,-0.009,0.011,-0.013,-0.01,0.009,0.019,-0.005,-0.015,-0.008,0.011
513,-0.021,-0.013,-0.01,-0.009,-0.007,-0.005,-0.007,-0.019,-0.009,0.011,-0.014,-0.01,0.009,0.019,-0.005,-0.016,-0.008,0.01
514,-0.021,-0.012,-0.012,-0.012,-0.007,-0.006,-0.008,-0.02,-0.009,0.012,-0.013,-0.009,0.01,0.019,-0.005,-0.017,-0.008,0.011
515,-0.022,-0.013,-0.013,-0.013,-0.007,-0.008,-0.009,-0.022,-0.011,0.01,-0.014,-0.01,0.009,0.018,-0.005,-0.017,-0.009,0.01
516,-0.021,-0.011,-0.012,-0.012,-0.008,-0.004,-0.009,-0.02,-0.009,0.009,-0.014,-0.008,0.009,0.017,-0.004,-0.015,-0.008,0.009
517,-0.019,-0.01,-0.01,-0.009,-0.006,-0.002,-0.007,-0.018,-0.007,0.009,-0.012,-0.008,0.009,0.017,-0.002,-0.013,-0.007,0.011
518,-0.019,-0.01,-0.008,-0.009,-0.006,-0.002,-0.006,-0.017,-0.005,0.011,-0.012,-0.007,0.009,0.02,-0.002,-0.013,-0.006,0.012
519,-0.019,-0.011,-0.008,-0.009,-0.005,-0.004,-0.005,-0.016,-0.006,0.012,-0.013,-0.008,0.011,0.021,-0.001,-0.013,-0.007,0.013
520,-0.02,-0.011,-0.007,-0.009,-0.005,-0.005,-0.007,-0.016,-0.008,0.012,-0.014,-0.009,0.011,0.02,-0.002,-0.014,-0.008,0.012
521,-0.021,-0.011,-0.008,-0.01,-0.007,-0.005,-0.008,-0.017,-0.009,0.01,-0.013,-0.009,0.01,0.017,-0.004,-0.015,-0.009,0.011
522,-0.021,-0.011,-0.008,-0.01,-0.008,-0.006,-0.009,-0.018,-0.01,0.008,-0.015,-0.009,0.009,0.016,-0.005,-0.016,-0.009,0.011
523,-0.022,-0.011,-0.008,-0.01,-0.007,-0.006,-0.008,-0.018,-0.008,0.009,-0.015,-0.009,0.009,0.017,-0.004,-0.014,-0.008,0.012
524,-0.021,-0.01,-0.008,-0.008,-0.005,-0.003,-0.005,-0.015,-0.006,0.011,-0.014,-0.006,0.01,0.02,-0.001,-0.011,-0.006,0.013
525,-0.022,-0.012,-0.009,-0.009,-0.005,-0.003,-0.006,-0.015,-0.007,0.012,-0.014,-0.007,0.009,0.02,-0.002,-0.013,-0.007,0.012
526,-0.022,-0.012,-0.009,-0.01,-0.007,-0.003,-0.007,-0.015,-0.009,0.012,-0.014,-0.009,0.008,0.02,-0.003,-0.015,-0.008,0.01
527,-0.022,-0.012,-0.009,-0.011,-0.006,-0.003,-0.007,-0.017,-0.01,0.012,-0.013,-0.01,0.009,0.02,-0.005,-0.015,-0.008,0.009
528,-0.021,-0.01,-0.008,-0.009,-0.005,-0.002,-0.006,-0.018,-0.008,0.01,-0.012,-0.009,0.008,0.018,-0.004,-0.014,-0.007,0.009
529,-0.022,-0.011,-0.009,-0.01,-0.006,-0.004,-0.007,-0.018,-0.009,0.007,-0.013,-0.008,0.006,0.015,-0.004,-0.014,-0.007,0.008
530,-0.025,-0.013,-0.01,-0.011,-0.007,-0.005,-0.009,-0.019,-0.01,0.007,-0.014,-0.009,0.007,0.014,-0.005,-0.015,-0.008,0.008
531,-0.027,-0.014,-0.012,-0.012,-0.008,-0.006,-0.009,-0.02,-0.011,0.011,-0.017,-0.009,0.009,0.018,-0.006,-0.016,-0.008,0.01
532,-0.026,-0.013,-0.011,-0.011,-0.007,-0.006,-0.009,-0.02,-0.01,0.014,-0.016,-0.009,0.01,0.021,-0.006,-0.016,-0.007,0.011
533,-0.025,-0.012,-0.011,-0.012,-0.008,-0.007,-0.008,-0.02,-0.01,0.011,-0.017,-0.011,0.007,0.019,-0.007,-0.017,-0.008,0.009
534,-0.026,-0.013,-0.012,-0.014,-0.009,-0.007,-0.009,-0.02,-0.011,0.008,-0.017,-0.012,0.005,0.017,-0.008,-0.018,-0.01,0.007
535,-0.027,-0.014,-0.012,-0.014,-0.01,-0.007,-0.01,-0.021,-0.013,0.01,-0.019,-0.013,0.006,0.018,-0.009,-0.018,-0.013,0.008
536,-0.028,-0.014,-0.013,-0.015,-0.011,-0.007,-0.012,-0.021,-0.014,0.011,-0.019,-0.014,0.006,0.018,-0.011,-0.02,-0.016,0.008
537,-0.026,-0.014,-0.015,-0.015,-0.01,-0.007,-0.011,-0.02,-0.014,0.011,-0.018,-0.015,0.006,0.017,-0.011,-0.02,-0.015,0.008
538,-0.024,-0.016,-0.016,-0.015,-0.011,-0.008,-0.009,-0.021,-0.014,0.009,-0.018,-0.016,0.006,0.015,-0.009,-0.019,-0.013,0.008
539,-0.022,-0.015,-0.014,-0.014,-0.009,-0.008,-0.008,-0.021,-0.012,0.01,-0.016,-0.013,0.008,0.016,-0.005,-0.016,-0.009,0.009
540,-0.021,-0.014,-0.01,-0.013,-0.008,-0.009,-0.008,-0.019,-0.011,0.01,-0.015,-0.01,0.007,0.015,-0.004,-0.015,-0.008,0.008
541,-0.018,-0.011,-0.008,-0.011,-0.006,-0.007,-0.009,-0.017,-0.009,0.009,-0.014,-0.008,0.005,0.014,-0.004,-0.013,-0.007,0.007
542,-0.02,-0.012,-0.009,-0.011,-0.006,-0.007,-0.009,-0.017,-0.009,0.008,-0.014,-0.009,0.005,0.014,-0.005,-0.015,-0.007,0.006
543,-0.023,-0.014,-0.011,-0.013,-0.008,-0.007,-0.009,-0.019,-0.009,0.008,-0.015,-0.01,0.005,0.015,-0.005,-0.015,-0.008,0.007
544,-0.025,-0.016,-0.014,-0.015,-0.011,-0.009,-0.011,-0.021,-0.011,0.008,-0.016,-0.011,0.006,0.014,-0.007,-0.016,-0.01,0.007
545,-0.022,-0.013,-0.012,-0.014,-0.01,-0.008,-0.009,-0.018,-0.01,0.006,-0.015,-0.009,0.005,0.013,-0.006,-0.015,-0.009,0.007
546,-0.019,-0.009,-0.01,-0.01,-0.007,-0.006,-0.007,-0.015,-0.008,0.004,-0.014,-0.008,0.003,0.01,-0.005,-0.014,-0.007,0.005
547,-0.018,-0.009,-0.008,-0.009,-0.006,-0.005,-0.007,-0.014,-0.007,0.001,-0.012,-0.008,0.001,0.008,-0.004,-0.015,-0.006,0.003
548,-0.019,-0.011,-0.009,-0.011,-0.007,-0.005,-0.009,-0.015,-0.009,0.002,-0.013,-0.01,0.001,0.009,-0.005,-0.015,-0.008,0.003
549,-0.02,-0.013,-0.011,-0.013,-0.009,-0.007,-0.01,-0.018,-0.011,0.006,-0.014,-0.011,0.004,0.011,-0.005,-0.015,-0.008,0.005
550,-0.019,-0.012,-0.012,-0.012,-0.007,-0.006,-0.009,-0.016,-0.01,0.007,-0.013,-0.011,0.006,0.013,-0.003,-0.013,-0.008,0.007
551,-0.017,-0.01,-0.011,-0.011,-0.004,-0.003,-0.007,-0.013,-0.007,0.007,-0.011,-0.009,0.006,0.013,-0.003,-0.011,-0.006,0.008
552,-0.016,-0.006,-0.007,-0.009,-0.001,-0.002,-0.004,-0.011,-0.006,0.006,-0.009,-0.007,0.004,0.011,-0.002,-0.009,-0.005,0.006
553,-0.016,-0.004,-0.006,-0.007,-0.001,-0.003,-0.004,-0.01,-0.005,0.005,-0.01,-0.006,0.003,0.01,-0.002,-0.009,-0.003,0.005
554,-0.015,-0.005,-0.006,-0.009,-0.002,-0.003,-0.005,-0.011,-0.005,0.006,-0.011,-0.007,0.003,0.011,-0.001,-0.01,-0.004,0.005
555,-0.015,-0.005,-0.005,-0.01,-0.003,-0.001,-0.005,-0.012,-0.004,0.007,-0.01,-0.007,0.004,0.012,0.0,-0.01,-0.004,0.006
556,-0.012,-0.003,-0.004,-0.007,0.0,0.002,-0.003,-0.009,-0.001,0.009,-0.008,-0.005,0.006,0.013,0.003,-0.006,-0.001,0.008
557,-0.01,0.0,-0.002,-0.003,0.004,0.004,0.001,-0.004,0.001,0.009,-0.003,-0.002,0.007,0.013,0.005,-0.003,-0.001,0.009
558,-0.01,-0.002,-0.005,-0.003,0.004,0.002,0.001,-0.006,0.0,0.006,-0.004,-0.001,0.006,0.011,0.003,-0.003,-0.002,0.007
559,-0.011,-0.003,-0.006,-0.005,0.001,-0.001,0.0,-0.008,-0.004,0.006,-0.006,-0.003,0.006,0.011,0.0,-0.007,-0.003,0.008
560,-0.012,-0.004,-0.006,-0.006,0.0,-0.001,-0.003,-0.009,-0.004,0.006,-0.01,-0.004,0.005,0.009,0.0,-0.01,-0.003,0.007
561,-0.011,-0.005,-0.006,-0.007,0.0,-0.002,-0.001,-0.009,-0.002,0.005,-0.009,-0.006,0.004,0.007,-0.002,-0.011,-0.001,0.006
562,-0.009,-0.002,-0.004,-0.004,0.001,-0.001,0.0,-0.009,-0.001,0.002,-0.008,-0.005,0.001,0.005,0.0,-0.008,0.0,0.004
563,-0.007,0.001,-0.003,-0.002,0.001,0.001,0.001,-0.008,-0.002,0.002,-0.005,-0.003,0.0,0.005,0.002,-0.007,0.001,0.002
564,-0.006,0.002,-0.003,-0.003,0.0,0.002,0.0,-0.008,-0.003,0.004,-0.004,-0.003,0.001,0.006,0.003,-0.007,0.0,0.003
565,-0.003,0.004,0.001,-0.001,0.003,0.005,0.002,-0.004,0.0,0.003,-0.001,0.0,0.0,0.007,0.006,-0.003,0.004,0.003
566,-0.002,0.003,0.001,0.0,0.004,0.006,0.003,-0.003,0.001,0.001,0.0,-0.002,-0.001,0.005,0.004,-0.002,0.004,0.002
567,0.0,0.004,0.003,0.003,0.005,0.006,0.005,-0.002,0.001,-0.001,0.0,-0.001,-0.001,0.004,0.005,0.001,0.003,0.001
568,0.001,0.004,0.003,0.003,0.007,0.005,0.005,-0.001,0.002,0.0,-0.002,0.0,-0.001,0.004,0.005,0.001,0.003,0.002
569,0.002,0.004,0.005,0.003,0.008,0.006,0.005,-0.001,0.003,-0.001,-0.002,0.0,-0.002,0.003,0.008,0.0,0.003,0.0
570,0.001,0.005,0.003,0.001,0.007,0.005,0.004,-0.001,0.002,-0.002,-0.004,0.0,-0.004,0.001,0.007,-0.002,0.004,-0.002
571,0.0,0.007,0.002,0.002,0.008,0.006,0.004,-0.001,0.004,-0.003,-0.002,0.002,-0.004,0.001,0.008,-0.001,0.005,-0.003
572,0.002,0.009,0.004,0.002,0.01,0.01,0.007,0.0,0.006,-0.002,0.001,0.004,-0.002,0.003,0.01,0.003,0.007,-0.001
573,0.005,0.011,0.009,0.006,0.014,0.013,0.012,0.006,0.011,-0.001,0.006,0.009,-0.002,0.004,0.015,0.008,0.012,0.0
574,0.008,0.014,0.013,0.009,0.017,0.016,0.014,0.01,0.015,0.0,0.009,0.012,-0.001,0.003,0.017,0.011,0.014,0.0
575,0.007,0.016,0.013,0.011,0.018,0.017,0.015,0.012,0.015,0.0,0.009,0.014,-0.001,0.003,0.017,0.012,0.014,0.0
576,0.007,0.014,0.012,0.01,0.016,0.017,0.014,0.008,0.013,0.0,0.008,0.012,-0.001,0.004,0.015,0.011,0.012,0.001
577,0.008,0.014,0.012,0.012,0.016,0.018,0.014,0.008,0.013,0.001,0.01,0.01,0.0,0.007,0.016,0.012,0.014,0.002
578,0.009,0.015,0.012,0.012,0.017,0.016,0.016,0.009,0.013,0.002,0.012,0.01,0.001,0.007,0.017,0.013,0.016,0.002
579,0.01,0.016,0.014,0.013,0.018,0.016,0.018,0.011,0.014,0.004,0.015,0.013,0.002,0.007,0.018,0.013,0.017,0.004
580,0.009,0.018,0.015,0.012,0.02,0.016,0.019,0.012,0.016,0.005,0.013,0.013,0.002,0.007,0.02,0.012,0.016,0.005
581,0.01,0.018,0.015,0.012,0.019,0.018,0.019,0.012,0.019,0.004,0.012,0.013,0.002,0.006,0.021,0.014,0.018,0.004
582,0.01,0.019,0.016,0.015,0.019,0.018,0.021,0.013,0.019,0.002,0.012,0.014,0.0,0.004,0.02,0.016,0.02,0.001
583,0.01,0.019,0.016,0.016,0.021,0.018,0.022,0.013,0.02,0.001,0.014,0.015,-0.001,0.003,0.02,0.017,0.022,0.0
584,0.011,0.021,0.017,0.016,0.022,0.017,0.021,0.013,0.02,0.001,0.015,0.016,-0.001,0.003,0.02,0.016,0.021,0.0
585,0.014,0.023,0.018,0.016,0.024,0.021,0.021,0.017,0.022,0.002,0.018,0.019,0.0,0.004,0.025,0.018,0.024,0.002
586,0.016,0.025,0.019,0.019,0.026,0.023,0.022,0.02,0.024,0.002,0.021,0.021,-0.001,0.004,0.027,0.021,0.025,0.002
587,0.017,0.023,0.02,0.018,0.026,0.024,0.023,0.019,0.024,0.0,0.018,0.021,-0.003,0.003,0.025,0.02,0.023,0.0
588,0.016,0.023,0.02,0.018,0.023,0.023,0.022,0.017,0.02,-0.002,0.016,0.019,-0.005,0.0,0.021,0.02,0.02,-0.002
589,0.014,0.019,0.017,0.017,0.019,0.02,0.021,0.013,0.017,-0.003,0.015,0.017,-0.005,-0.001,0.018,0.017,0.019,-0.003
590,0.015,0.019,0.018,0.018,0.019,0.02,0.02,0.014,0.017,-0.002,0.017,0.018,-0.003,0.0,0.022,0.019,0.02,-0.002
591,0.017,0.019,0.017,0.016,0.022,0.022,0.021,0.015,0.019,-0.001,0.017,0.02,-0.002,0.001,0.026,0.018,0.021,-0.001
592,0.019,0.022,0.019,0.016,0.026,0.023,0.023,0.016,0.022,0.0,0.017,0.02,-0.002,0.002,0.028,0.019,0.023,-0.001
593,0.022,0.024,0.021,0.018,0.027,0.025,0.023,0.017,0.023,0.0,0.019,0.02,-0.002,0.0,0.028,0.021,0.024,-0.001
594,0.023,0.025,0.023,0.023,0.028,0.027,0.025,0.02,0.024,0.001,0.022,0.021,-0.002,0.001,0.027,0.022,0.026,-0.001
595,0.023,0.027,0.024,0.024,0.029,0.027,0.026,0.022,0.023,0.002,0.022,0.022,-0.001,0.001,0.027,0.022,0.026,0.0
596,0.02,0.026,0.023,0.02,0.027,0.025,0.024,0.022,0.021,0.001,0.019,0.021,-0.001,0.001,0.027,0.021,0.026,-0.001
597,0.018,0.024,0.023,0.017,0.025,0.023,0.024,0.02,0.021,-0.002,0.017,0.017,-0.004,-0.002,0.025,0.019,0.023,-0.003
598,0.019,0.025,0.024,0.02,0.026,0.023,0.025,0.02,0.023,-0.003,0.019,0.018,-0.005,-0.002,0.025,0.019,0.023,-0.003
599,0.019,0.026,0.024,0.02,0.027,0.026,0.023,0.021,0.024,-0.004,0.021,0.021,-0.005,-0.002,0.025,0.018,0.022,-0.003
600,0.02,0.027,0.024,0.023,0.029,0.027,0.024,0.023,0.025,-0.003,0.022,0.022,-0.004,-0.002,0.026,0.021,0.024,-0.003
601,0.021,0.024,0.024,0.022,0.028,0.026,0.024,0.022,0.022,-0.003,0.02,0.021,-0.004,-0.002,0.026,0.021,0.023,-0.003
602,0.02,0.022,0.022,0.021,0.026,0.024,0.024,0.019,0.02,-0.001,0.019,0.018,-0.004,-0.002,0.027,0.02,0.022,-0.001
603,0.02,0.021,0.02,0.017,0.022,0.022,0.02,0.015,0.018,-0.002,0.017,0.015,-0.006,-0.004,0.025,0.016,0.02,-0.002
604,0.02,0.022,0.02,0.015,0.024,0.02,0.02,0.016,0.019,-0.005,0.016,0.015,-0.007,-0.007,0.022,0.015,0.021,-0.004
605,0.019,0.021,0.019,0.014,0.023,0.02,0.019,0.016,0.017,-0.006,0.014,0.014,-0.008,-0.007,0.02,0.017,0.021,-0.006
606,0.02,0.023,0.02,0.016,0.025,0.022,0.022,0.018,0.019,-0.003,0.016,0.019,-0.005,-0.003,0.023,0.019,0.023,-0.003
607,0.02,0.025,0.021,0.017,0.026,0.023,0.023,0.017,0.021,-0.002,0.018,0.02,-0.002,0.0,0.025,0.02,0.023,-0.001
608,0.02,0.025,0.02,0.018,0.025,0.023,0.022,0.017,0.023,-0.004,0.018,0.019,-0.003,-0.001,0.025,0.02,0.024,-0.001
609,0.02,0.025,0.019,0.019,0.025,0.024,0.022,0.018,0.022,-0.004,0.019,0.02,-0.004,-0.003,0.024,0.021,0.025,-0.001
610,0.023,0.026,0.022,0.021,0.026,0.027,0.025,0.018,0.022,-0.002,0.021,0.021,-0.004,-0.002,0.025,0.022,0.027,-0.001
611,0.024,0.027,0.025,0.021,0.029,0.028,0.027,0.021,0.023,-0.002,0.019,0.022,-0.003,-0.001,0.025,0.022,0.027,-0.002
612,0.02,0.024,0.021,0.017,0.027,0.024,0.024,0.02,0.022,-0.002,0.018,0.018,-0.004,-0.001,0.025,0.019,0.025,-0.002
613,0.016,0.022,0.016,0.014,0.023,0.02,0.022,0.017,0.019,-0.002,0.016,0.017,-0.004,-0.001,0.025,0.016,0.021,-0.002
614,0.017,0.02,0.015,0.012,0.02,0.016,0.021,0.014,0.019,0.0,0.016,0.017,-0.003,-0.001,0.023,0.018,0.018,0.0
615,0.02,0.022,0.018,0.012,0.02,0.017,0.018,0.014,0.019,0.0,0.014,0.018,-0.001,-0.001,0.022,0.019,0.019,0.002
616,0.023,0.022,0.02,0.014,0.021,0.018,0.019,0.015,0.02,0.002,0.016,0.017,0.0,0.0,0.021,0.018,0.02,0.002
617,0.024,0.022,0.021,0.018,0.023,0.019,0.019,0.016,0.019,0.0,0.017,0.016,-0.003,-0.002,0.021,0.018,0.021,-0.001
618,0.025,0.022,0.02,0.018,0.025,0.019,0.022,0.018,0.021,-0.002,0.018,0.016,-0.006,-0.004,0.022,0.019,0.021,-0.004
619,0.024,0.022,0.016,0.016,0.022,0.018,0.02,0.015,0.02,-0.004,0.017,0.015,-0.007,-0.005,0.021,0.017,0.021,-0.005
620,0.021,0.02,0.016,0.015,0.022,0.019,0.018,0.014,0.019,-0.004,0.016,0.013,-0.006,-0.006,0.022,0.017,0.021,-0.005
621,0.022,0.025,0.02,0.019,0.025,0.023,0.023,0.017,0.021,-0.002,0.02,0.017,-0.003,-0.002,0.024,0.021,0.023,-0.001
622,0.024,0.03,0.022,0.022,0.028,0.027,0.028,0.023,0.023,-0.001,0.023,0.024,-0.003,0.0,0.028,0.026,0.027,0.0
623,0.028,0.033,0.022,0.025,0.029,0.029,0.033,0.028,0.026,-0.001,0.026,0.027,-0.004,-0.001,0.032,0.028,0.031,-0.001
624,0.025,0.028,0.022,0.022,0.028,0.027,0.03,0.025,0.025,-0.005,0.024,0.026,-0.007,-0.005,0.031,0.028,0.027,-0.004
625,0.023,0.028,0.024,0.02,0.028,0.024,0.028,0.023,0.025,-0.006,0.025,0.023,-0.008,-0.007,0.03,0.026,0.026,-0.006
626,0.022,0.028,0.025,0.021,0.027,0.024,0.027,0.023,0.024,-0.007,0.025,0.021,-0.007,-0.006,0.03,0.024,0.026,-0.006
627,0.021,0.027,0.023,0.02,0.027,0.024,0.024,0.022,0.023,-0.007,0.023,0.018,-0.006,-0.005,0.028,0.021,0.024,-0.006
628,0.021,0.023,0.02,0.017,0.026,0.022,0.022,0.017,0.021,-0.006,0.019,0.017,-0.004,-0.003,0.022,0.019,0.02,-0.004
629,0.02,0.022,0.02,0.015,0.024,0.021,0.022,0.016,0.02,-0.003,0.017,0.016,-0.003,-0.001,0.021,0.019,0.019,-0.001
630,0.019,0.023,0.02,0.016,0.024,0.021,0.023,0.016,0.021,-0.001,0.019,0.016,-0.002,-0.001,0.021,0.02,0.023,0.0
631,0.021,0.025,0.024,0.018,0.026,0.022,0.025,0.017,0.023,-0.001,0.021,0.016,-0.001,-0.002,0.024,0.021,0.024,0.0
632,0.022,0.023,0.023,0.018,0.026,0.022,0.024,0.018,0.022,-0.004,0.02,0.016,-0.003,-0.004,0.024,0.021,0.024,-0.003
633,0.022,0.023,0.02,0.017,0.025,0.021,0.023,0.02,0.02,-0.007,0.019,0.017,-0.006,-0.005,0.025,0.02,0.024,-0.005
634,0.02,0.023,0.016,0.016,0.022,0.021,0.024,0.019,0.021,-0.007,0.02,0.019,-0.007,-0.005,0.025,0.019,0.024,-0.005
635,0.019,0.023,0.018,0.018,0.024,0.021,0.024,0.019,0.022,-0.005,0.021,0.021,-0.005,-0.003,0.024,0.02,0.025,-0.002
636,0.02,0.025,0.022,0.019,0.025,0.022,0.024,0.02,0.022,-0.004,0.022,0.023,-0.004,-0.002,0.025,0.022,0.025,-0.002
637,0.025,0.027,0.023,0.021,0.03,0.027,0.027,0.025,0.022,-0.003,0.023,0.023,-0.003,-0.001,0.027,0.025,0.027,-0.001
638,0.026,0.029,0.024,0.02,0.029,0.027,0.028,0.024,0.023,-0.002,0.024,0.022,-0.006,-0.003,0.03,0.025,0.027,-0.003
639,0.025,0.028,0.021,0.022,0.027,0.025,0.026,0.021,0.023,-0.003,0.022,0.021,-0.008,-0.005,0.027,0.022,0.027,-0.005
640,0.025,0.026,0.02,0.024,0.026,0.023,0.025,0.018,0.023,-0.004,0.018,0.019,-0.008,-0.005,0.023,0.019,0.024,-0.005
641,0.024,0.028,0.022,0.025,0.028,0.024,0.026,0.021,0.024,-0.003,0.017,0.019,-0.005,-0.004,0.024,0.021,0.023,-0.003
642,0.021,0.027,0.025,0.022,0.028,0.023,0.026,0.022,0.024,-0.001,0.016,0.019,-0.003,-0.002,0.025,0.023,0.023,0.0
643,0.019,0.026,0.024,0.021,0.026,0.022,0.025,0.023,0.023,0.001,0.016,0.021,0.0,0.0,0.026,0.025,0.024,0.001
644,0.02,0.026,0.022,0.019,0.024,0.02,0.025,0.021,0.02,0.001,0.017,0.02,0.0,0.001,0.023,0.022,0.024,0.001
645,0.022,0.027,0.023,0.022,0.026,0.022,0.028,0.022,0.021,0.002,0.023,0.021,0.0,0.002,0.026,0.022,0.026,0.002
646,0.023,0.027,0.022,0.021,0.027,0.023,0.028,0.021,0.02,-0.001,0.024,0.02,-0.003,-0.001,0.026,0.022,0.024,-0.002
647,0.024,0.024,0.02,0.02,0.025,0.023,0.024,0.021,0.02,-0.003,0.021,0.018,-0.004,-0.002,0.023,0.021,0.022,-0.003
648,0.022,0.024,0.02,0.02,0.025,0.022,0.023,0.019,0.02,-0.004,0.02,0.017,-0.004,-0.003,0.023,0.019,0.02,-0.002
649,0.021,0.026,0.023,0.02,0.027,0.025,0.024,0.021,0.023,-0.002,0.022,0.019,-0.003,-0.001,0.027,0.02,0.023,0.001
650,0.02,0.028,0.024,0.022,0.028,0.025,0.027,0.021,0.024,-0.002,0.022,0.022,-0.003,-0.001,0.028,0.021,0.026,0.001
651,0.016,0.025,0.02,0.018,0.024,0.022,0.023,0.018,0.021,-0.004,0.018,0.02,-0.004,-0.002,0.026,0.019,0.022,-0.002
652,0.014,0.021,0.018,0.018,0.021,0.02,0.023,0.016,0.019,-0.003,0.016,0.017,-0.004,-0.001,0.024,0.017,0.019,-0.003
653,0.015,0.021,0.017,0.017,0.02,0.021,0.022,0.018,0.02,-0.001,0.018,0.016,-0.003,0.001,0.025,0.015,0.021,-0.001
654,0.017,0.021,0.016,0.016,0.022,0.021,0.023,0.018,0.019,0.0,0.017,0.015,-0.002,0.001,0.023,0.015,0.023,0.0
655,0.017,0.022,0.016,0.013,0.021,0.017,0.02,0.017,0.017,-0.001,0.015,0.014,-0.002,-0.001,0.019,0.013,0.019,0.0
656,0.017,0.023,0.019,0.014,0.021,0.02,0.021,0.017,0.018,-0.003,0.015,0.014,-0.003,-0.002,0.02,0.018,0.018,-0.001
657,0.02,0.026,0.021,0.019,0.024,0.023,0.022,0.02,0.02,-0.003,0.018,0.019,-0.003,-0.001,0.024,0.022,0.02,-0.001
658,0.023,0.026,0.021,0.021,0.026,0.023,0.022,0.02,0.023,-0.003,0.02,0.02,-0.003,-0.001,0.028,0.022,0.023,-0.001
659,0.024,0.024,0.019,0.02,0.028,0.022,0.022,0.019,0.024,-0.002,0.021,0.02,-0.002,0.0,0.028,0.02,0.024,-0.001
660,0.022,0.023,0.019,0.017,0.026,0.019,0.022,0.017,0.021,-0.001,0.02,0.018,-0.001,0.0,0.024,0.02,0.024,0.0
661,0.02,0.024,0.019,0.018,0.027,0.02,0.024,0.019,0.023,0.0,0.02,0.02,0.002,0.003,0.023,0.02,0.025,0.001
662,0.019,0.025,0.023,0.018,0.028,0.022,0.025,0.019,0.025,0.001,0.02,0.019,0.0,0.003,0.026,0.02,0.026,0.0
663,0.018,0.023,0.022,0.019,0.026,0.024,0.024,0.018,0.024,-0.001,0.018,0.018,-0.003,0.0,0.026,0.02,0.026,-0.002
664,0.018,0.023,0.022,0.017,0.02,0.023,0.022,0.017,0.019,-0.004,0.018,0.016,-0.006,-0.003,0.024,0.015,0.019,-0.005
665,0.019,0.022,0.021,0.016,0.019,0.02,0.021,0.017,0.016,-0.005,0.017,0.018,-0.005,-0.002,0.022,0.01,0.015,-0.005
666,0.017,0.021,0.019,0.012,0.018,0.018,0.019,0.013,0.015,-0.007,0.013,0.014,-0.007,-0.003,0.018,0.011,0.012,-0.005
667,0.014,0.02,0.017,0.012,0.021,0.021,0.019,0.012,0.017,-0.005,0.013,0.013,-0.006,-0.002,0.02,0.016,0.016,-0.003
668,0.012,0.018,0.017,0.011,0.02,0.021,0.019,0.012,0.019,-0.002,0.012,0.014,-0.003,-0.001,0.021,0.015,0.016,0.0
669,0.013,0.017,0.017,0.013,0.02,0.015,0.017,0.013,0.016,0.0,0.012,0.014,-0.001,0.001,0.018,0.012,0.016,0.0
670,0.012,0.015,0.014,0.01,0.019,0.013,0.013,0.012,0.014,0.001,0.01,0.011,-0.001,0.001,0.015,0.01,0.013,0.0
671,0.012,0.014,0.012,0.009,0.019,0.014,0.013,0.013,0.014,-0.001,0.012,0.01,-0.003,0.0,0.015,0.012,0.015,-0.001
672,0.015,0.017,0.013,0.01,0.021,0.018,0.015,0.014,0.016,0.001,0.015,0.012,-0.001,0.002,0.02,0.015,0.019,0.001
673,0.015,0.02,0.015,0.013,0.021,0.017,0.018,0.014,0.019,0.0,0.014,0.014,-0.001,0.004,0.02,0.014,0.019,0.002
674,0.012,0.023,0.016,0.014,0.017,0.018,0.016,0.012,0.021,0.0,0.012,0.013,-0.001,0.002,0.021,0.011,0.012,0.0
675,0.008,0.017,0.012,0.008,0.013,0.012,0.011,0.007,0.013,-0.003,0.007,0.007,-0.006,-0.003,0.017,0.006,0.008,-0.004
676,0.008,0.013,0.01,0.006,0.012,0.011,0.01,0.007,0.01,-0.002,0.006,0.005,-0.007,-0.002,0.015,0.007,0.009,-0.005
677,0.01,0.013,0.01,0.007,0.014,0.008,0.012,0.009,0.009,-0.001,0.007,0.006,-0.004,0.001,0.014,0.008,0.011,-0.003
678,0.012,0.015,0.012,0.009,0.015,0.01,0.013,0.009,0.012,0.001,0.009,0.009,0.0,0.003,0.017,0.011,0.011,0.001
679,0.008,0.013,0.011,0.005,0.012,0.006,0.011,0.004,0.011,-0.003,0.005,0.007,-0.002,0.0,0.013,0.008,0.007,0.0
680,0.003,0.009,0.007,0.0,0.008,0.005,0.009,0.0,0.006,-0.004,0.0,0.003,-0.004,-0.004,0.008,0.005,0.004,-0.003
681,0.006,0.008,0.005,-0.002,0.008,0.007,0.007,0.0,0.003,-0.003,0.001,0.002,-0.006,-0.005,0.005,0.002,0.006,-0.005
682,0.009,0.009,0.006,0.002,0.012,0.009,0.008,0.001,0.007,-0.002,0.007,0.004,-0.004,-0.002,0.008,0.003,0.01,-0.004
683,0.013,0.013,0.011,0.006,0.018,0.007,0.01,0.006,0.012,0.0,0.011,0.007,-0.001,0.002,0.011,0.008,0.012,0.0
684,0.011,0.014,0.013,0.007,0.02,0.008,0.015,0.01,0.015,0.004,0.012,0.01,0.001,0.004,0.013,0.012,0.014,0.003
685,0.009,0.013,0.012,0.004,0.015,0.009,0.013,0.009,0.014,0.004,0.009,0.01,0.001,0.003,0.014,0.012,0.014,0.003
686,0.008,0.01,0.007,0.001,0.012,0.01,0.013,0.007,0.012,0.003,0.008,0.01,0.0,0.003,0.015,0.006,0.013,0.002
687,0.008,0.009,0.007,0.003,0.011,0.01,0.011,0.005,0.011,0.002,0.007,0.007,-0.001,0.003,0.016,0.005,0.011,0.003
688,0.004,0.009,0.007,0.003,0.01,0.009,0.009,0.004,0.009,0.001,0.006,0.005,-0.001,0.002,0.015,0.004,0.007,0.002
689,0.001,0.009,0.006,0.001,0.005,0.005,0.006,0.001,0.006,-0.002,0.004,0.005,-0.003,0.0,0.011,0.004,0.006,-0.001
690,0.002,0.006,0.004,0.001,0.005,0.0,0.005,0.0,0.004,-0.003,0.0,0.003,-0.004,-0.001,0.009,0.002,0.007,-0.003
691,0.006,0.003,0.005,0.003,0.007,0.0,0.007,-0.001,0.006,-0.002,0.0,0.001,-0.004,-0.001,0.008,0.003,0.009,-0.003
692,0.006,0.005,0.008,0.003,0.011,0.004,0.008,0.001,0.008,-0.003,0.003,0.002,-0.005,-0.002,0.008,0.003,0.007,-0.003
693,0.004,0.008,0.008,0.005,0.01,0.008,0.007,0.004,0.007,-0.003,0.006,0.003,-0.005,-0.004,0.007,0.003,0.005,-0.002
694,-0.001,0.005,0.003,0.002,0.006,0.008,0.004,0.003,0.005,-0.004,0.003,0.001,-0.005,-0.003,0.007,0.002,0.002,-0.002
695,0.001,0.004,0.002,0.001,0.005,0.006,0.005,0.001,0.008,-0.002,0.002,0.0,-0.003,0.0,0.009,0.003,0.005,0.0
696,0.003,0.008,0.002,0.001,0.008,0.006,0.008,0.001,0.01,-0.001,0.004,0.001,-0.002,0.002,0.009,0.004,0.008,0.0
697,0.007,0.011,0.008,0.005,0.01,0.008,0.008,0.005,0.007,-0.001,0.006,0.003,-0.004,0.0,0.01,0.005,0.01,0.0
698,0.007,0.011,0.007,0.006,0.009,0.007,0.007,0.006,0.008,-0.002,0.006,0.005,-0.004,-0.001,0.011,0.005,0.01,-0.002
699,0.006,0.008,0.008,0.004,0.008,0.004,0.009,0.004,0.01,-0.003,0.007,0.006,-0.004,-0.001,0.013,0.006,0.007,-0.002
700,0.003,0.008,0.003,0.003,0.008,0.003,0.007,0.003,0.008,-0.001,0.007,0.004,-0.001,0.002,0.011,0.007,0.006,0.0
701,0.0,0.006,-0.001,0.002,0.008,0.004,0.006,0.003,0.006,0.001,0.004,0.002,0.001,0.003,0.011,0.007,0.005,0.002
702,0.002,0.004,-0.003,0.0,0.006,0.003,0.004,0.0,0.002,0.001,0.0,-0.001,0.001,0.003,0.011,0.002,0.003,0.001
703,-0.002,0.003,-0.003,-0.005,0.003,-0.001,0.002,-0.007,-0.005,-0.002,-0.005,-0.003,-0.003,0.002,0.006,-0.003,-0.001,0.0
704,-0.001,-0.001,-0.003,-0.01,0.001,0.0,0.001,-0.007,-0.006,-0.002,-0.005,-0.005,-0.003,0.001,0.0,-0.005,-0.001,0.0
705,-0.002,0.001,0.003,-0.006,0.004,0.004,0.005,-0.003,0.0,0.0,0.0,-0.005,-0.002,0.001,0.002,0.0,0.003,0.0
706,0.0,0.001,0.007,0.0,0.007,0.005,0.007,0.001,0.005,0.0,0.001,-0.003,-0.002,0.001,0.009,0.003,0.005,-0.003
707,0.001,0.0,0.006,0.003,0.01,0.004,0.006,0.001,0.008,0.0,0.003,-0.001,-0.002,0.003,0.008,0.0,0.007,-0.001
708,0.002,0.001,0.002,-0.002,0.004,0.003,0.004,-0.003,0.004,0.0,-0.002,-0.002,-0.002,0.001,0.003,-0.002,0.005,0.0
709,-0.002,0.0,-0.001,-0.007,0.0,-0.002,0.003,-0.005,-0.004,-0.001,-0.003,-0.006,-0.003,0.001,0.002,-0.004,0.0,-0.001
710,-0.006,0.001,-0.002,-0.009,-0.002,0.0,0.001,-0.007,-0.008,-0.001,-0.006,-0.005,-0.002,0.002,0.0,-0.003,-0.006,-0.001
711,-0.002,0.001,0.001,-0.006,0.0,0.002,0.002,-0.005,-0.004,0.0,-0.004,-0.004,-0.002,0.001,0.002,-0.003,-0.007,-0.002
712,0.001,0.003,0.004,-0.004,0.003,0.006,0.005,-0.006,0.005,-0.001,-0.002,0.001,-0.003,-0.001,0.004,0.002,-0.004,-0.003
713,0.0,0.003,0.004,-0.005,0.007,0.004,0.006,-0.002,0.006,-0.001,-0.002,0.0,-0.003,0.001,0.005,0.0,-0.002,-0.003
714,-0.003,0.003,-0.002,-0.006,0.005,-0.002,0.002,-0.004,0.0,-0.001,-0.003,-0.004,-0.004,0.001,0.0,-0.004,-0.006,-0.002
715,-0.004,0.005,-0.006,-0.006,0.001,-0.008,0.004,-0.002,-0.004,-0.002,-0.004,-0.009,-0.004,0.0,-0.003,-0.005,-0.006,-0.002
716,0.0,0.009,-0.006,-0.002,0.006,-0.005,0.005,0.0,-0.003,-0.002,0.0,-0.004,-0.003,0.0,0.004,0.0,0.0,-0.001
717,0.001,0.003,-0.003,-0.002,0.008,-0.002,0.007,0.004,0.0,-0.001,0.001,0.001,-0.003,0.001,0.008,0.001,0.003,-0.001
718,0.004,-0.001,-0.002,-0.003,0.008,0.002,0.006,0.0,-0.002,0.0,0.0,-0.001,-0.005,-0.001,0.007,0.001,0.001,-0.002
719,-0.001,-0.003,-0.003,-0.003,0.006,0.002,0.005,-0.004,-0.004,-0.002,0.0,-0.004,-0.006,-0.003,0.0,0.001,-0.003,-0.005
720,-0.003,-0.002,-0.004,-0.004,0.003,-0.001,-0.002,-0.005,-0.005,-0.001,-0.001,-0.007,-0.005,-0.002,0.001,0.001,-0.003,-0.004
721,-0.011,-0.005,-0.009,-0.005,0.0,-0.009,-0.006,-0.008,-0.005,-0.004,-0.005,-0.01,-0.004,-0.003,-0.001,-0.005,-0.01,-0.003
722,-0.007,-0.002,-0.01,-0.008,-0.005,-0.007,-0.005,-0.008,-0.004,-0.002,-0.01,-0.01,-0.004,-0.002,-0.002,-0.011,-0.012,-0.003
723,-0.006,0.002,-0.005,-0.007,-0.002,-0.002,0.002,-0.005,-0.003,-0.002,-0.007,-0.003,-0.003,-0.003,-0.002,-0.01,-0.007,-0.002
724,-0.002,0.006,0.003,-0.005,0.0,0.002,0.006,0.001,-0.004,-0.001,-0.004,-0.002,-0.004,-0.001,0.002,-0.003,0.004,-0.003
725,0.0,0.004,0.002,0.0,0.005,0.003,0.005,0.002,0.0,-0.001,0.0,0.0,-0.004,0.0,0.0,0.003,0.007,-0.001
726,0.004,0.003,-0.005,-0.002,0.006,0.001,0.002,0.001,0.006,-0.001,0.003,-0.001,-0.005,-0.002,0.002,0.003,0.007,-0.003
727,0.008,0.004,-0.002,-0.007,0.006,0.002,0.006,-0.004,0.008,-0.003,0.004,0.0,-0.004,0.0,0.004,0.003,0.002,-0.001
728,0.007,0.001,0.0,-0.008,0.004,0.0,0.005,-0.006,0.0,-0.003,0.0,-0.008,-0.002,0.001,0.003,-0.003,-0.002,-0.001
729,0.008,-0.001,-0.001,-0.006,0.004,-0.002,0.003,-0.007,0.001,-0.004,-0.002,-0.005,0.0,0.002,0.003,-0.005,-0.004,-0.001
730,0.005,0.003,-0.004,-0.002,0.002,-0.006,-0.003,-0.003,0.006,-0.007,-0.002,-0.002,-0.002,0.0,0.003,-0.001,0.003,-0.004
731,0.005,0.007,-0.002,-0.004,0.005,-0.003,0.0,0.001,0.006,-0.008,-0.001,0.0,-0.004,-0.002,0.004,0.008,0.006,-0.004
732,-0.002,0.004,-0.003,-0.007,0.005,-0.003,-0.001,0.0,-0.002,-0.005,-0.001,-0.003,-0.005,-0.003,0.0,0.005,0.002,-0.002
733,0.001,0.002,-0.007,-0.011,0.009,0.0,0.007,-0.001,-0.002,-0.003,-0.002,-0.004,-0.004,-0.003,0.001,0.0,0.0,-0.002
734,0.002,0.005,-0.004,-0.007,0.006,0.002,0.005,-0.004,-0.001,-0.001,-0.001,-0.004,-0.003,-0.002,0.005,-0.002,0.003,-0.001
735,0.003,0.003,-0.002,-0.007,0.003,0.002,0.001,-0.005,-0.004,-0.003,-0.006,-0.001,-0.004,-0.001,0.008,-0.001,0.0,-0.002
736,-0.005,-0.003,-0.003,-0.009,0.0,-0.003,-0.003,-0.01,-0.004,-0.005,-0.009,-0.006,-0.005,-0.002,0.006,-0.002,-0.002,-0.004
737,-0.005,-0.006,-0.002,-0.009,0.002,-0.004,0.004,-0.012,0.006,-0.003,-0.002,-0.007,-0.004,-0.001,0.004,-0.004,0.002,-0.003
738,-0.003,-0.001,0.001,-0.005,0.004,-0.001,0.01,-0.007,0.012,0.0,0.005,-0.002,-0.002,0.001,0.008,0.001,0.006,0.002
739,0.002,0.001,0.005,0.001,0.001,0.002,0.012,-0.003,0.012,0.003,0.007,0.005,-0.003,0.002,0.009,0.005,0.009,0.004
740,0.0,0.002,0.004,-0.001,0.002,0.002,0.008,-0.001,0.005,0.0,0.0,0.004,-0.004,0.0,0.008,0.001,0.004,0.002
741,-0.002,0.003,-0.002,-0.008,0.004,-0.001,0.007,-0.004,0.001,-0.002,-0.003,0.0,-0.004,-0.002,0.005,-0.001,-0.007,-0.002
742,-0.005,0.003,-0.005,-0.012,0.002,-0.004,0.003,-0.006,-0.003,-0.005,-0.004,-0.002,-0.004,-0.002,0.002,0.0,-0.005,-0.005
743,-0.004,-0.002,-0.01,-0.007,-0.001,-0.001,0.003,-0.011,-0.004,-0.006,-0.002,-0.003,-0.007,-0.004,-0.001,-0.005,-0.003,-0.006
744,-0.002,-0.004,-0.01,-0.005,-0.001,0.001,-0.002,-0.008,-0.003,-0.006,-0.001,-0.006,-0.008,-0.005,-0.003,-0.01,-0.003,-0.005
745,-0.005,-0.007,-0.014,-0.011,-0.004,-0.005,0.0,-0.008,0.0,-0.004,-0.004,-0.009,-0.006,-0.004,-0.006,-0.007,-0.007,-0.004
746,-0.01,-0.01,-0.008,-0.017,-0.006,-0.008,0.002,-0.004,0.0,-0.003,-0.003,-0.008,-0.003,-0.001,-0.006,-0.006,-0.001,-0.002
747,-0.01,-0.007,-0.016,-0.014,-0.006,-0.007,0.004,-0.003,-0.002,-0.004,-0.006,-0.005,-0.008,-0.003,-0.002,-0.007,-0.009,-0.003
748,-0.01,0.002,-0.011,-0.006,-0.002,-0.006,-0.002,-0.002,-0.002,-0.005,-0.005,-0.005,-0.01,-0.004,0.006,-0.006,-0.011,-0.005
749,-0.006,0.002,-0.008,0.001,-0.001,-0.004,-0.005,-0.004,0.001,-0.004,-0.006,-0.006,-0.006,-0.004,0.004,-0.002,-0.011,-0.004
750,0.0,0.0,0.0,0.0,0.0,0.0,0.0,0.0,0.0,0.0,0.0,0.0,0.0,0.0,0.0,0.0,0.0,0.0
