,0,1,2,3,4,5,6,7,8,9,10,11
190,0.308,0.328,0.165,0.381,0.398,0.186,0.258,0.264,0.184,0.205,0.232,0.326
191,1.119,1.184,0.98,1.223,1.231,0.958,1.034,1.043,0.941,0.923,0.918,1.174
192,2.175,2.283,2.137,2.29,2.288,2.076,2.076,1.991,2.008,1.956,1.979,2.305
193,2.913,2.985,2.884,2.976,2.966,2.874,2.907,2.979,2.856,2.795,2.713,2.888
194,2.514,2.51,2.416,2.508,2.509,2.451,2.607,2.785,2.583,2.487,2.561,2.355
195,1.74,1.683,1.598,1.689,1.735,1.666,1.892,2.11,1.877,1.821,2.007,1.531
196,0.922,0.847,0.821,0.863,0.908,0.886,1.09,1.26,1.132,1.108,1.34,0.759
197,0.476,0.422,0.494,0.439,0.465,0.529,0.603,0.623,0.684,0.725,0.938,0.478
198,0.452,0.419,0.421,0.434,0.439,0.471,0.517,0.543,0.604,0.648,0.662,0.395
199,0.37,0.329,0.333,0.341,0.354,0.375,0.43,0.469,0.516,0.533,0.618,0.318
200,0.295,0.272,0.27,0.275,0.289,0.316,0.359,0.4,0.431,0.458,0.53,0.258
201,0.239,0.217,0.22,0.223,0.236,0.258,0.3,0.335,0.361,0.393,0.457,0.208
202,0.193,0.174,0.177,0.178,0.192,0.21,0.256,0.279,0.312,0.34,0.404,0.166
203,0.162,0.145,0.147,0.15,0.162,0.175,0.22,0.239,0.281,0.302,0.364,0.137
204,0.139,0.123,0.125,0.127,0.138,0.149,0.193,0.211,0.253,0.268,0.329,0.113
205,0.115,0.102,0.105,0.11,0.12,0.13,0.168,0.189,0.224,0.238,0.298,0.096
206,0.1,0.089,0.091,0.096,0.104,0.114,0.148,0.169,0.199,0.214,0.268,0.079
207,0.087,0.077,0.08,0.082,0.09,0.102,0.133,0.152,0.18,0.192,0.243,0.067
208,0.079,0.069,0.073,0.075,0.081,0.094,0.122,0.141,0.166,0.179,0.223,0.063
209,0.073,0.064,0.067,0.069,0.076,0.086,0.116,0.13,0.154,0.166,0.207,0.062
210,0.067,0.058,0.062,0.063,0.072,0.081,0.108,0.121,0.143,0.154,0.195,0.06
211,0.063,0.055,0.059,0.059,0.069,0.076,0.103,0.117,0.135,0.146,0.184,0.055
212,0.058,0.051,0.058,0.054,0.064,0.07,0.095,0.109,0.126,0.139,0.174,0.047
213,0.05,0.045,0.053,0.049,0.057,0.064,0.085,0.101,0.115,0.129,0.16,0.041
214,0.045,0.041,0.047,0.043,0.052,0.058,0.078,0.093,0.108,0.12,0.149,0.038
215,0.044,0.038,0.044,0.041,0.049,0.054,0.074,0.087,0.102,0.112,0.141,0.037
216,0.042,0.036,0.042,0.042,0.048,0.052,0.072,0.085,0.099,0.108,0.136,0.037
217,0.041,0.035,0.041,0.042,0.046,0.053,0.07,0.082,0.096,0.107,0.134,0.037
218,0.037,0.032,0.039,0.04,0.042,0.05,0.066,0.078,0.092,0.103,0.131,0.035
219,0.034,0.03,0.037,0.035,0.038,0.046,0.064,0.075,0.089,0.101,0.13,0.031
220,0.034,0.03,0.036,0.035,0.039,0.045,0.065,0.077,0.091,0.102,0.133,0.031
221,0.032,0.028,0.035,0.033,0.039,0.044,0.064,0.077,0.091,0.102,0.133,0.03
222,0.03,0.027,0.034,0.031,0.038,0.043,0.064,0.077,0.091,0.102,0.133,0.028
223,0.028,0.025,0.031,0.028,0.035,0.041,0.062,0.074,0.089,0.102,0.13,0.025
224,0.025,0.023,0.029,0.025,0.032,0.039,0.06,0.071,0.086,0.101,0.128,0.022
225,0.025,0.022,0.027,0.026,0.032,0.039,0.059,0.071,0.086,0.101,0.13,0.023
226,0.024,0.02,0.026,0.025,0.031,0.038,0.06,0.07,0.086,0.1,0.131,0.022
227,0.023,0.019,0.025,0.025,0.031,0.037,0.059,0.071,0.087,0.099,0.133,0.021
228,0.022,0.019,0.024,0.023,0.029,0.036,0.058,0.07,0.086,0.098,0.133,0.02
229,0.02,0.018,0.023,0.022,0.028,0.035,0.057,0.068,0.086,0.098,0.134,0.019
230,0.02,0.017,0.022,0.021,0.027,0.035,0.057,0.069,0.087,0.1,0.136,0.018
231,0.019,0.016,0.021,0.021,0.027,0.035,0.058,0.07,0.089,0.103,0.14,0.018
232,0.018,0.015,0.02,0.02,0.026,0.036,0.06,0.072,0.092,0.105,0.145,0.017
233,0.016,0.014,0.019,0.018,0.026,0.036,0.061,0.075,0.096,0.108,0.15,0.016
234,0.014,0.013,0.017,0.017,0.025,0.036,0.062,0.077,0.098,0.113,0.156,0.014
235,0.013,0.012,0.016,0.016,0.025,0.037,0.065,0.08,0.104,0.119,0.164,0.014
236,0.013,0.012,0.017,0.018,0.027,0.039,0.069,0.085,0.111,0.127,0.174,0.014
237,0.013,0.011,0.018,0.018,0.028,0.042,0.073,0.089,0.117,0.134,0.186,0.014
238,0.012,0.01,0.017,0.018,0.028,0.044,0.077,0.095,0.126,0.143,0.199,0.013
239,0.011,0.009,0.017,0.018,0.028,0.046,0.081,0.102,0.135,0.154,0.216,0.011
240,0.01,0.008,0.016,0.017,0.029,0.048,0.087,0.109,0.147,0.168,0.236,0.011
241,0.01,0.009,0.017,0.018,0.031,0.05,0.095,0.119,0.161,0.184,0.258,0.011
242,0.009,0.009,0.017,0.019,0.032,0.053,0.101,0.128,0.174,0.199,0.282,0.01
243,0.009,0.008,0.017,0.02,0.034,0.058,0.111,0.139,0.19,0.218,0.308,0.01
244,0.008,0.008,0.018,0.021,0.036,0.063,0.122,0.153,0.209,0.24,0.338,0.01
245,0.008,0.007,0.019,0.023,0.04,0.07,0.136,0.17,0.232,0.265,0.375,0.01
246,0.007,0.007,0.019,0.023,0.043,0.077,0.149,0.187,0.256,0.292,0.415,0.009
247,0.006,0.006,0.019,0.024,0.045,0.083,0.162,0.203,0.279,0.319,0.455,0.008
248,0.006,0.006,0.02,0.027,0.048,0.09,0.176,0.222,0.305,0.348,0.497,0.008
249,0.005,0.006,0.02,0.028,0.052,0.098,0.192,0.242,0.333,0.38,0.541,0.007
250,0.005,0.005,0.021,0.03,0.057,0.107,0.21,0.264,0.364,0.416,0.592,0.007
251,0.005,0.006,0.023,0.033,0.062,0.118,0.231,0.29,0.4,0.457,0.65,0.007
252,0.006,0.006,0.026,0.037,0.068,0.129,0.253,0.318,0.438,0.498,0.709,0.007
253,0.007,0.008,0.027,0.041,0.074,0.141,0.276,0.346,0.476,0.542,0.77,0.008
254,0.006,0.008,0.028,0.043,0.08,0.153,0.299,0.374,0.516,0.586,0.828,0.007
255,0.005,0.007,0.029,0.045,0.085,0.164,0.323,0.404,0.556,0.633,0.889,0.006
256,0.005,0.007,0.031,0.048,0.091,0.177,0.349,0.437,0.601,0.684,0.957,0.006
257,0.006,0.007,0.033,0.053,0.099,0.191,0.376,0.472,0.65,0.738,1.028,0.007
258,0.006,0.008,0.035,0.057,0.106,0.206,0.404,0.509,0.702,0.796,1.107,0.007
259,0.007,0.009,0.038,0.061,0.113,0.22,0.433,0.547,0.756,0.856,1.193,0.007
260,0.007,0.009,0.04,0.064,0.119,0.233,0.461,0.583,0.804,0.911,1.273,0.006
261,0.007,0.01,0.043,0.068,0.127,0.248,0.489,0.616,0.849,0.963,1.337,0.007
262,0.007,0.01,0.046,0.073,0.136,0.263,0.516,0.649,0.892,1.007,1.383,0.008
263,0.007,0.01,0.047,0.077,0.143,0.277,0.543,0.681,0.931,1.049,1.414,0.008
264,0.007,0.01,0.049,0.08,0.149,0.289,0.568,0.712,0.969,1.088,1.441,0.007
265,0.006,0.009,0.05,0.082,0.154,0.301,0.593,0.743,1.008,1.13,1.47,0.006
266,0.006,0.01,0.052,0.085,0.16,0.315,0.617,0.775,1.05,1.176,1.518,0.005
267,0.006,0.011,0.054,0.089,0.168,0.329,0.642,0.806,1.092,1.222,1.563,0.006
268,0.008,0.012,0.057,0.093,0.175,0.34,0.665,0.833,1.129,1.259,1.599,0.007
269,0.008,0.012,0.058,0.097,0.179,0.35,0.684,0.855,1.153,1.288,1.606,0.007
270,0.008,0.011,0.058,0.098,0.182,0.357,0.702,0.878,1.181,1.321,1.63,0.006
271,0.007,0.011,0.058,0.099,0.185,0.364,0.716,0.897,1.207,1.352,1.672,0.006
272,0.006,0.011,0.058,0.099,0.188,0.37,0.726,0.909,1.227,1.37,1.711,0.005
273,0.006,0.011,0.058,0.1,0.19,0.373,0.731,0.915,1.237,1.37,1.706,0.005
274,0.006,0.012,0.059,0.101,0.19,0.374,0.731,0.914,1.23,1.361,1.666,0.005
275,0.007,0.012,0.06,0.101,0.19,0.373,0.729,0.912,1.225,1.356,1.651,0.006
276,0.007,0.012,0.06,0.101,0.19,0.371,0.724,0.907,1.215,1.349,1.646,0.006
277,0.007,0.011,0.059,0.099,0.188,0.365,0.715,0.896,1.202,1.337,1.657,0.006
278,0.006,0.011,0.058,0.097,0.183,0.358,0.699,0.879,1.183,1.317,1.643,0.005
279,0.006,0.011,0.057,0.095,0.178,0.348,0.681,0.857,1.154,1.287,1.619,0.006
280,0.007,0.012,0.055,0.093,0.173,0.337,0.66,0.828,1.124,1.252,1.592,0.006
281,0.006,0.011,0.052,0.088,0.166,0.323,0.635,0.797,1.084,1.214,1.564,0.006
282,0.006,0.01,0.05,0.083,0.158,0.309,0.607,0.763,1.04,1.168,1.532,0.005
283,0.005,0.009,0.047,0.078,0.149,0.292,0.575,0.724,0.989,1.115,1.484,0.005
284,0.006,0.009,0.046,0.074,0.14,0.274,0.538,0.68,0.929,1.051,1.415,0.006
285,0.005,0.008,0.042,0.068,0.129,0.254,0.498,0.63,0.866,0.979,1.335,0.006
286,0.005,0.007,0.039,0.062,0.118,0.233,0.458,0.58,0.798,0.904,1.247,0.005
287,0.004,0.007,0.036,0.056,0.107,0.212,0.417,0.527,0.726,0.822,1.149,0.005
288,0.004,0.006,0.033,0.051,0.097,0.191,0.374,0.473,0.651,0.738,1.038,0.005
289,0.004,0.007,0.031,0.046,0.087,0.17,0.332,0.419,0.576,0.654,0.923,0.006
290,0.004,0.006,0.028,0.04,0.075,0.147,0.289,0.365,0.501,0.57,0.807,0.005
291,0.004,0.006,0.025,0.034,0.064,0.126,0.248,0.313,0.431,0.492,0.695,0.006
292,0.004,0.006,0.022,0.029,0.054,0.106,0.21,0.263,0.363,0.415,0.586,0.006
293,0.003,0.005,0.019,0.023,0.044,0.087,0.173,0.217,0.299,0.342,0.483,0.006
294,0.004,0.005,0.017,0.019,0.037,0.071,0.139,0.176,0.241,0.276,0.391,0.006
295,0.003,0.004,0.015,0.016,0.03,0.056,0.11,0.14,0.19,0.219,0.311,0.006
296,0.003,0.004,0.013,0.013,0.024,0.043,0.085,0.109,0.147,0.171,0.242,0.006
297,0.002,0.003,0.011,0.01,0.019,0.033,0.066,0.083,0.112,0.131,0.186,0.006
298,0.001,0.001,0.009,0.007,0.014,0.024,0.05,0.063,0.084,0.099,0.14,0.004
299,0.001,0.001,0.007,0.004,0.01,0.018,0.038,0.047,0.063,0.075,0.106,0.004
300,0.002,0.001,0.007,0.004,0.008,0.015,0.029,0.037,0.048,0.057,0.081,0.004
301,0.002,0.001,0.007,0.004,0.008,0.012,0.023,0.03,0.037,0.044,0.061,0.005
302,0.002,0.002,0.007,0.003,0.007,0.01,0.019,0.024,0.029,0.035,0.047,0.006
303,0.001,0.001,0.006,0.003,0.006,0.007,0.014,0.018,0.021,0.027,0.036,0.006
304,0.001,0.002,0.006,0.002,0.005,0.005,0.012,0.014,0.016,0.021,0.028,0.005
305,0.002,0.002,0.006,0.002,0.004,0.005,0.01,0.013,0.013,0.018,0.023,0.005
306,0.002,0.002,0.006,0.002,0.004,0.005,0.01,0.012,0.011,0.015,0.02,0.005
307,0.002,0.001,0.006,0.002,0.004,0.004,0.008,0.011,0.01,0.012,0.017,0.006
308,0.002,0.002,0.006,0.002,0.004,0.003,0.006,0.01,0.009,0.011,0.014,0.006
309,0.003,0.003,0.006,0.003,0.005,0.004,0.006,0.009,0.008,0.011,0.013,0.007
310,0.002,0.003,0.007,0.003,0.004,0.003,0.005,0.008,0.007,0.01,0.012,0.006
311,0.003,0.002,0.007,0.002,0.004,0.003,0.005,0.008,0.006,0.009,0.012,0.005
312,0.003,0.002,0.006,0.003,0.004,0.003,0.005,0.008,0.006,0.009,0.011,0.006
313,0.002,0.002,0.006,0.003,0.003,0.003,0.006,0.007,0.006,0.009,0.011,0.006
314,0.002,0.002,0.006,0.003,0.004,0.004,0.006,0.007,0.006,0.009,0.011,0.007
315,0.002,0.001,0.006,0.002,0.003,0.003,0.005,0.007,0.006,0.008,0.01,0.006
316,0.001,0.002,0.005,0.001,0.003,0.002,0.004,0.006,0.005,0.008,0.01,0.005
317,0.0,0.0,0.004,0.0,0.002,0.001,0.003,0.005,0.004,0.007,0.009,0.003
318,-0.001,-0.001,0.002,-0.001,0.0,0.0,0.001,0.004,0.003,0.005,0.007,0.003
319,0.0,-0.001,0.003,0.0,0.001,0.001,0.002,0.004,0.003,0.006,0.007,0.003
320,0.0,0.0,0.004,0.0,0.001,0.002,0.003,0.005,0.004,0.006,0.006,0.004
321,0.002,0.001,0.004,0.001,0.002,0.003,0.004,0.006,0.005,0.007,0.008,0.005
322,0.002,0.002,0.005,0.002,0.004,0.003,0.005,0.007,0.006,0.007,0.009,0.005
323,0.003,0.002,0.006,0.002,0.004,0.004,0.005,0.008,0.006,0.008,0.01,0.006
324,0.003,0.002,0.006,0.002,0.004,0.004,0.005,0.008,0.006,0.008,0.01,0.006
325,0.003,0.002,0.006,0.001,0.003,0.003,0.004,0.007,0.005,0.007,0.009,0.005
326,0.002,0.002,0.006,0.001,0.003,0.003,0.004,0.007,0.005,0.007,0.008,0.005
327,0.001,0.001,0.005,0.001,0.003,0.002,0.004,0.005,0.004,0.006,0.007,0.004
328,0.0,-0.001,0.004,0.0,0.002,0.001,0.003,0.004,0.003,0.005,0.006,0.003
329,0.0,-0.002,0.003,-0.001,0.001,0.001,0.002,0.003,0.002,0.005,0.006,0.003
330,0.001,0.0,0.004,0.001,0.002,0.002,0.003,0.004,0.004,0.007,0.008,0.005
331,0.002,0.001,0.005,0.002,0.004,0.004,0.004,0.006,0.005,0.008,0.009,0.006
332,0.003,0.002,0.005,0.003,0.004,0.003,0.004,0.006,0.005,0.008,0.008,0.006
333,0.003,0.002,0.004,0.001,0.003,0.002,0.004,0.006,0.004,0.007,0.008,0.005
334,0.002,0.001,0.005,0.001,0.003,0.001,0.003,0.005,0.004,0.006,0.008,0.005
335,0.001,0.0,0.003,0.0,0.001,0.0,0.002,0.004,0.003,0.005,0.006,0.004
336,0.0,0.0,0.003,0.0,0.002,0.0,0.002,0.005,0.004,0.004,0.005,0.004
337,0.001,0.001,0.004,0.001,0.002,0.001,0.003,0.005,0.004,0.005,0.007,0.004
338,0.002,0.003,0.006,0.002,0.004,0.003,0.004,0.007,0.005,0.007,0.009,0.006
339,0.002,0.003,0.006,0.002,0.004,0.003,0.004,0.007,0.004,0.007,0.009,0.006
340,0.002,0.002,0.004,0.001,0.003,0.002,0.003,0.005,0.003,0.007,0.008,0.005
341,0.001,0.001,0.004,0.001,0.002,0.002,0.002,0.005,0.004,0.007,0.007,0.005
342,0.0,0.0,0.003,0.0,0.001,0.0,0.001,0.004,0.003,0.005,0.006,0.003
343,0.001,0.001,0.004,0.0,0.001,0.001,0.002,0.005,0.003,0.005,0.007,0.004
344,0.001,0.001,0.005,0.001,0.002,0.001,0.003,0.004,0.004,0.006,0.007,0.005
345,0.003,0.002,0.006,0.002,0.004,0.003,0.004,0.005,0.004,0.007,0.008,0.006
346,0.002,0.001,0.006,0.002,0.004,0.003,0.004,0.005,0.004,0.007,0.008,0.006
347,0.0,0.0,0.004,0.0,0.002,0.002,0.002,0.005,0.002,0.006,0.007,0.005
348,0.001,0.0,0.004,0.0,0.001,0.002,0.003,0.004,0.003,0.006,0.007,0.004
349,0.001,0.0,0.004,0.0,0.0,0.001,0.002,0.004,0.003,0.005,0.007,0.004
350,0.001,0.0,0.004,0.0,0.0,0.001,0.003,0.004,0.003,0.005,0.006,0.004
351,0.0,-0.001,0.003,-0.001,0.0,0.0,0.001,0.003,0.002,0.004,0.005,0.003
352,0.0,-0.001,0.003,-0.001,0.0,0.0,0.0,0.003,0.001,0.005,0.005,0.004
353,-0.001,-0.001,0.003,-0.001,0.0,-0.001,0.0,0.003,0.001,0.004,0.005,0.003
354,0.0,0.0,0.004,0.0,0.001,0.0,0.002,0.005,0.003,0.005,0.007,0.005
355,0.001,0.001,0.005,0.001,0.002,0.001,0.003,0.006,0.003,0.006,0.008,0.006
356,0.002,0.002,0.006,0.001,0.003,0.002,0.003,0.006,0.004,0.006,0.008,0.006
357,0.003,0.003,0.007,0.002,0.004,0.004,0.004,0.007,0.004,0.007,0.008,0.007
358,0.002,0.003,0.006,0.002,0.004,0.003,0.004,0.006,0.004,0.006,0.008,0.006
359,0.003,0.003,0.006,0.002,0.003,0.002,0.004,0.005,0.004,0.006,0.007,0.006
360,0.002,0.001,0.004,0.0,0.002,0.0,0.003,0.004,0.003,0.005,0.006,0.004
361,0.001,0.001,0.004,0.0,0.001,-0.001,0.002,0.004,0.002,0.005,0.006,0.004
362,0.001,0.001,0.005,0.0,0.002,0.001,0.003,0.004,0.002,0.006,0.007,0.005
363,0.001,0.001,0.006,0.001,0.003,0.002,0.003,0.005,0.003,0.006,0.008,0.005
364,0.002,0.001,0.006,0.002,0.003,0.002,0.004,0.005,0.004,0.006,0.008,0.006
365,0.002,0.001,0.005,0.001,0.002,0.002,0.003,0.004,0.004,0.005,0.008,0.005
366,0.001,0.001,0.004,0.0,0.001,0.001,0.002,0.004,0.003,0.005,0.007,0.004
367,0.001,0.001,0.003,-0.001,0.001,0.001,0.001,0.004,0.002,0.004,0.007,0.003
368,0.001,0.001,0.003,0.0,0.001,0.001,0.001,0.004,0.002,0.005,0.007,0.003
369,0.0,0.001,0.003,0.0,0.001,0.0,0.001,0.004,0.002,0.005,0.007,0.003
370,0.0,0.0,0.003,0.0,0.001,0.0,0.001,0.003,0.001,0.004,0.006,0.003
371,0.0,0.001,0.004,0.0,0.002,0.001,0.002,0.004,0.002,0.004,0.007,0.003
372,0.001,0.001,0.004,0.0,0.002,0.002,0.002,0.004,0.003,0.004,0.007,0.004
373,0.003,0.002,0.005,0.001,0.004,0.003,0.003,0.006,0.004,0.006,0.008,0.005
374,0.002,0.002,0.004,0.001,0.003,0.001,0.002,0.005,0.004,0.006,0.007,0.004
375,0.001,0.001,0.004,0.001,0.001,0.001,0.002,0.004,0.003,0.005,0.006,0.003
376,0.001,0.001,0.004,0.0,0.0,0.001,0.002,0.003,0.002,0.004,0.006,0.003
377,0.001,0.001,0.004,-0.001,0.0,0.001,0.002,0.003,0.002,0.004,0.006,0.004
378,0.002,0.002,0.006,0.001,0.002,0.002,0.004,0.005,0.003,0.006,0.007,0.005
379,0.003,0.002,0.006,0.002,0.003,0.002,0.005,0.006,0.005,0.006,0.009,0.006
380,0.003,0.002,0.005,0.002,0.003,0.002,0.005,0.005,0.005,0.006,0.009,0.006
381,0.002,0.0,0.004,0.001,0.002,0.001,0.003,0.004,0.003,0.005,0.007,0.005
382,0.0,-0.001,0.003,-0.001,0.001,0.0,0.002,0.003,0.001,0.004,0.006,0.003
383,0.0,0.0,0.004,-0.001,0.001,0.001,0.002,0.004,0.002,0.005,0.006,0.004
384,0.001,0.0,0.005,0.0,0.002,0.001,0.002,0.005,0.003,0.005,0.006,0.006
385,0.001,0.001,0.005,0.0,0.002,0.001,0.002,0.005,0.003,0.006,0.006,0.006
386,0.0,0.0,0.004,-0.001,0.001,0.0,0.002,0.004,0.002,0.004,0.006,0.005
387,0.0,0.0,0.004,-0.001,0.001,0.0,0.002,0.004,0.002,0.003,0.006,0.004
388,0.001,0.001,0.004,0.0,0.002,0.001,0.003,0.004,0.003,0.005,0.007,0.005
389,0.001,0.001,0.004,0.001,0.002,0.001,0.003,0.004,0.004,0.005,0.006,0.005
390,0.002,0.002,0.006,0.002,0.003,0.002,0.003,0.005,0.005,0.006,0.008,0.006
391,0.002,0.003,0.006,0.002,0.003,0.001,0.003,0.005,0.004,0.005,0.008,0.006
392,0.002,0.003,0.006,0.002,0.002,0.002,0.004,0.005,0.004,0.005,0.008,0.006
393,0.002,0.002,0.004,0.001,0.001,0.001,0.003,0.004,0.002,0.005,0.006,0.004
394,0.0,0.0,0.003,0.0,0.001,0.0,0.001,0.003,0.001,0.003,0.005,0.003
395,0.001,0.0,0.003,0.0,0.001,0.0,0.001,0.003,0.001,0.003,0.005,0.003
396,0.001,0.001,0.004,0.001,0.002,0.0,0.002,0.004,0.003,0.004,0.005,0.003
397,0.002,0.001,0.005,0.001,0.002,0.001,0.003,0.005,0.003,0.005,0.006,0.004
398,0.002,0.002,0.005,0.001,0.002,0.001,0.003,0.005,0.003,0.005,0.006,0.005
399,0.002,0.001,0.004,0.0,0.0,0.001,0.002,0.004,0.002,0.005,0.005,0.004
400,0.001,-0.001,0.003,0.0,-0.001,0.0,0.0,0.002,0.001,0.003,0.005,0.003
401,0.0,-0.002,0.002,-0.001,-0.001,-0.001,0.0,0.001,0.0,0.002,0.004,0.002
402,0.001,-0.001,0.002,-0.001,0.0,-0.001,0.0,0.002,0.001,0.002,0.004,0.002
403,0.001,0.001,0.004,0.001,0.002,0.001,0.002,0.003,0.002,0.003,0.005,0.004
404,0.002,0.002,0.005,0.002,0.002,0.002,0.003,0.005,0.003,0.004,0.006,0.005
405,0.003,0.003,0.005,0.002,0.003,0.002,0.003,0.005,0.004,0.005,0.007,0.005
406,0.003,0.003,0.005,0.001,0.003,0.002,0.003,0.005,0.004,0.005,0.007,0.005
407,0.003,0.002,0.005,0.001,0.003,0.002,0.003,0.005,0.003,0.005,0.007,0.006
408,0.002,0.001,0.004,0.001,0.002,0.0,0.002,0.004,0.002,0.005,0.006,0.005
409,0.002,0.001,0.004,0.001,0.002,0.001,0.002,0.004,0.002,0.005,0.007,0.005
410,0.002,0.002,0.005,0.001,0.003,0.002,0.004,0.005,0.003,0.006,0.007,0.005
411,0.001,0.002,0.005,0.0,0.002,0.002,0.003,0.005,0.003,0.005,0.007,0.005
412,0.0,0.0,0.004,0.0,0.001,0.001,0.003,0.004,0.002,0.004,0.006,0.004
413,0.0,-0.001,0.003,-0.001,-0.001,-0.001,0.001,0.003,0.001,0.003,0.004,0.003
414,-0.001,-0.001,0.002,-0.001,-0.001,-0.001,0.0,0.002,0.0,0.003,0.004,0.003
415,-0.001,-0.001,0.001,-0.002,-0.001,-0.002,0.0,0.001,-0.001,0.002,0.003,0.002
416,0.001,0.0,0.002,-0.002,0.0,0.0,0.001,0.002,0.001,0.003,0.005,0.003
417,0.003,0.002,0.005,0.0,0.002,0.001,0.003,0.004,0.003,0.005,0.006,0.005
418,0.005,0.003,0.006,0.002,0.004,0.003,0.004,0.006,0.005,0.006,0.008,0.006
419,0.004,0.003,0.007,0.003,0.004,0.003,0.004,0.006,0.005,0.006,0.008,0.006
420,0.002,0.002,0.005,0.002,0.003,0.002,0.003,0.005,0.004,0.005,0.007,0.005
421,0.0,0.001,0.004,0.001,0.001,0.001,0.001,0.004,0.002,0.004,0.006,0.004
422,-0.001,-0.001,0.002,-0.002,0.0,0.0,-0.001,0.002,0.0,0.002,0.003,0.002
423,-0.001,-0.001,0.003,-0.001,0.001,0.0,0.0,0.003,0.0,0.002,0.004,0.003
424,0.001,0.0,0.005,0.0,0.002,0.002,0.002,0.005,0.002,0.004,0.006,0.005
425,0.002,0.001,0.005,0.0,0.002,0.001,0.002,0.004,0.002,0.004,0.006,0.005
426,0.001,0.0,0.004,-0.001,0.001,-0.001,0.001,0.002,0.001,0.003,0.004,0.003
427,0.001,0.0,0.004,-0.001,0.001,-0.001,0.0,0.002,0.001,0.003,0.004,0.002
428,0.002,0.002,0.005,0.001,0.002,0.001,0.002,0.004,0.002,0.004,0.006,0.004
429,0.002,0.001,0.004,0.001,0.002,0.001,0.002,0.004,0.003,0.004,0.006,0.004
430,0.001,0.001,0.004,0.0,0.001,0.0,0.001,0.003,0.002,0.003,0.006,0.003
431,0.001,0.0,0.004,-0.001,0.001,0.0,0.0,0.002,0.001,0.003,0.005,0.002
432,0.002,0.001,0.005,0.0,0.002,0.001,0.001,0.004,0.002,0.004,0.005,0.003
433,0.003,0.002,0.005,0.001,0.002,0.001,0.002,0.004,0.002,0.004,0.006,0.004
434,0.002,0.0,0.003,-0.001,0.001,0.0,0.001,0.003,0.001,0.003,0.006,0.003
435,0.001,-0.001,0.003,-0.002,0.0,0.0,0.001,0.003,0.001,0.003,0.006,0.003
436,0.001,0.0,0.004,-0.001,0.001,0.001,0.002,0.004,0.002,0.005,0.007,0.004
437,0.0,0.0,0.004,0.0,0.002,0.001,0.002,0.005,0.003,0.005,0.007,0.005
438,-0.001,-0.001,0.003,-0.001,0.001,0.0,0.001,0.003,0.001,0.003,0.005,0.004
439,-0.002,-0.002,0.002,-0.002,0.0,-0.001,-0.001,0.002,0.0,0.002,0.004,0.003
440,-0.002,-0.003,0.001,-0.004,-0.001,-0.002,-0.002,0.0,-0.001,0.001,0.002,0.001
441,-0.001,-0.002,0.002,-0.003,-0.001,-0.002,-0.001,0.001,-0.001,0.001,0.003,0.001
442,0.0,0.0,0.003,-0.002,0.0,-0.001,0.0,0.002,0.001,0.002,0.004,0.001
443,0.001,0.0,0.003,-0.001,0.0,0.0,0.0,0.002,0.001,0.003,0.004,0.002
444,0.003,0.002,0.005,0.001,0.002,0.002,0.002,0.004,0.003,0.005,0.006,0.004
445,0.004,0.002,0.006,0.001,0.003,0.002,0.003,0.005,0.003,0.006,0.006,0.005
446,0.004,0.003,0.007,0.003,0.004,0.003,0.004,0.007,0.004,0.006,0.007,0.006
447,0.003,0.002,0.005,0.001,0.002,0.001,0.002,0.004,0.002,0.004,0.005,0.004
448,0.0,-0.001,0.003,-0.002,0.0,-0.001,-0.001,0.002,0.0,0.002,0.003,0.002
449,-0.001,-0.001,0.002,-0.002,0.0,-0.001,0.0,0.002,0.0,0.001,0.004,0.002
450,0.0,-0.001,0.003,0.0,0.001,0.0,0.001,0.003,0.002,0.003,0.006,0.003
451,0.002,0.001,0.005,0.002,0.003,0.002,0.003,0.005,0.004,0.005,0.007,0.005
452,0.002,0.002,0.006,0.002,0.004,0.002,0.003,0.005,0.005,0.006,0.007,0.006
453,0.002,0.002,0.006,0.002,0.003,0.002,0.002,0.004,0.003,0.006,0.007,0.005
454,0.001,0.001,0.004,0.0,0.001,0.0,0.001,0.002,0.001,0.004,0.005,0.002
455,-0.001,-0.001,0.003,-0.002,-0.001,-0.002,-0.001,0.001,-0.001,0.002,0.004,0.0
456,-0.002,-0.002,0.002,-0.003,-0.002,-0.003,-0.002,0.0,-0.001,0.001,0.002,0.0
457,-0.001,-0.001,0.003,-0.002,0.0,-0.002,-0.001,0.002,0.0,0.002,0.003,0.001
458,-0.001,-0.001,0.002,-0.003,-0.001,-0.003,-0.001,0.001,-0.002,0.001,0.002,0.0
459,-0.003,-0.003,0.0,-0.004,-0.003,-0.004,-0.003,-0.001,-0.004,-0.002,0.001,-0.001
460,-0.005,-0.005,-0.002,-0.006,-0.005,-0.005,-0.004,-0.002,-0.004,-0.003,0.0,-0.002
461,-0.004,-0.004,-0.001,-0.005,-0.004,-0.004,-0.003,-0.001,-0.003,-0.002,0.001,-0.001
462,-0.002,-0.003,0.001,-0.004,-0.002,-0.002,-0.001,0.001,0.0,0.0,0.003,0.0
463,-0.001,-0.001,0.002,-0.002,0.0,0.0,0.0,0.002,0.0,0.002,0.004,0.002
464,-0.001,-0.001,0.003,-0.001,0.001,0.0,0.0,0.002,0.0,0.002,0.003,0.002
465,-0.002,-0.002,0.001,-0.002,0.0,-0.002,-0.002,0.001,-0.001,0.0,0.002,0.001
466,-0.003,-0.003,-0.001,-0.004,-0.002,-0.004,-0.003,-0.001,-0.002,-0.001,0.0,-0.001
467,-0.003,-0.003,-0.001,-0.004,-0.003,-0.003,-0.003,0.0,-0.002,-0.001,0.0,-0.001
468,-0.002,-0.002,0.001,-0.002,-0.001,-0.002,-0.001,0.001,-0.001,0.001,0.002,0.001
469,-0.001,0.0,0.003,-0.001,0.0,-0.001,0.0,0.002,0.001,0.002,0.003,0.002
470,-0.001,-0.001,0.003,-0.002,0.0,-0.002,-0.001,0.001,0.0,0.002,0.004,0.002
471,-0.001,-0.001,0.002,-0.002,0.0,-0.002,-0.001,0.002,-0.001,0.001,0.003,0.001
472,0.0,0.001,0.004,0.0,0.001,0.0,0.001,0.003,0.001,0.003,0.005,0.003
473,0.001,0.001,0.006,0.001,0.003,0.002,0.002,0.004,0.002,0.004,0.006,0.004
474,0.0,0.001,0.004,0.0,0.001,0.001,0.0,0.002,0.001,0.003,0.005,0.004
475,-0.001,-0.001,0.002,-0.001,0.0,-0.001,-0.001,0.001,0.0,0.002,0.004,0.002
476,-0.002,-0.002,0.001,-0.003,-0.001,-0.002,-0.001,0.001,-0.001,0.002,0.003,0.001
477,0.0,0.0,0.003,-0.001,0.001,0.0,0.001,0.003,0.001,0.003,0.004,0.003
478,0.002,0.001,0.005,0.0,0.002,0.001,0.002,0.003,0.002,0.004,0.005,0.004
479,0.001,0.001,0.005,-0.001,0.0,0.0,0.002,0.002,0.001,0.002,0.004,0.003
480,0.0,-0.001,0.003,-0.003,-0.001,-0.002,0.0,0.001,-0.001,0.001,0.003,0.001
481,-0.002,-0.003,0.001,-0.004,-0.002,-0.003,-0.002,-0.001,-0.003,0.0,0.002,0.0
482,-0.001,-0.002,0.002,-0.003,-0.001,-0.003,-0.002,0.0,-0.002,0.0,0.002,0.0
483,-0.003,-0.002,0.002,-0.003,-0.002,-0.003,-0.003,-0.001,-0.002,0.0,0.002,0.0
484,-0.002,-0.001,0.002,-0.003,-0.002,-0.002,-0.002,0.001,-0.001,0.0,0.003,0.001
485,-0.001,0.0,0.004,-0.001,0.0,0.0,0.001,0.003,0.001,0.002,0.005,0.003
486,0.001,0.002,0.005,0.001,0.002,0.002,0.002,0.005,0.003,0.004,0.006,0.005
487,0.001,0.002,0.005,0.0,0.002,0.001,0.001,0.004,0.002,0.004,0.006,0.004
488,0.002,0.002,0.004,0.001,0.002,0.001,0.001,0.003,0.002,0.004,0.006,0.004
489,0.001,0.001,0.004,0.0,0.001,0.0,0.001,0.002,0.001,0.003,0.005,0.004
490,0.0,0.0,0.003,0.0,0.0,-0.001,0.001,0.001,0.0,0.003,0.005,0.003
491,0.001,0.001,0.004,0.0,0.001,0.001,0.001,0.002,0.001,0.003,0.006,0.004
492,0.002,0.001,0.005,0.001,0.002,0.001,0.002,0.004,0.001,0.003,0.006,0.004
493,0.002,0.002,0.006,0.002,0.004,0.003,0.003,0.006,0.003,0.005,0.008,0.006
494,0.0,0.001,0.004,0.001,0.003,0.001,0.002,0.004,0.002,0.004,0.006,0.004
495,0.0,0.0,0.003,-0.001,0.002,0.0,0.001,0.002,0.0,0.002,0.004,0.002
496,0.0,0.0,0.002,-0.002,0.0,-0.001,-0.001,0.001,-0.001,0.001,0.002,0.001
497,-0.001,-0.002,0.001,-0.003,-0.002,-0.002,-0.002,0.0,-0.002,0.0,0.002,0.0
498,-0.001,-0.001,0.003,-0.001,0.0,-0.001,-0.001,0.001,0.0,0.003,0.004,0.002
499,0.0,0.0,0.004,0.0,0.001,0.0,0.001,0.003,0.002,0.004,0.005,0.004
500,0.0,0.0,0.003,-0.001,0.001,0.0,0.001,0.003,0.002,0.004,0.005,0.004
501,-0.001,-0.001,0.003,-0.002,0.0,-0.001,0.0,0.002,0.001,0.003,0.004,0.003
502,-0.001,0.0,0.003,-0.002,0.0,-0.001,0.0,0.002,0.001,0.003,0.004,0.002
503,0.0,0.0,0.004,-0.001,0.001,0.0,0.0,0.002,0.001,0.003,0.004,0.003
504,0.0,0.0,0.004,-0.001,0.0,0.0,0.0,0.002,0.0,0.003,0.004,0.003
505,-0.001,-0.001,0.003,-0.003,-0.001,-0.001,-0.001,0.001,-0.001,0.002,0.003,0.001
506,-0.002,-0.002,0.002,-0.004,-0.002,-0.003,-0.002,0.0,-0.002,0.001,0.002,0.0
507,0.0,-0.001,0.002,-0.003,-0.002,-0.003,-0.001,0.001,-0.001,0.001,0.003,0.001
508,0.0,-0.001,0.003,-0.002,-0.001,-0.002,-0.001,0.002,0.0,0.002,0.002,0.002
509,0.001,0.001,0.004,0.0,0.001,0.0,0.001,0.003,0.002,0.003,0.004,0.004
510,0.001,0.002,0.004,0.0,0.001,0.0,0.002,0.004,0.003,0.004,0.005,0.004
511,-0.001,0.0,0.003,-0.002,0.0,-0.001,0.001,0.003,0.001,0.003,0.004,0.004
512,-0.002,-0.001,0.003,-0.002,-0.001,-0.001,-0.001,0.002,0.0,0.002,0.004,0.002
513,-0.001,-0.001,0.002,-0.003,-0.001,-0.002,-0.001,0.001,-0.001,0.001,0.003,0.001
514,0.0,-0.001,0.002,-0.003,-0.001,-0.002,-0.001,0.001,-0.001,0.001,0.003,0.0
515,0.0,-0.001,0.003,-0.002,0.001,-0.002,0.0,0.002,0.0,0.002,0.005,0.001
516,0.0,0.0,0.004,-0.001,0.001,-0.001,0.001,0.003,0.002,0.003,0.006,0.002
517,0.001,0.001,0.005,0.0,0.002,0.002,0.003,0.004,0.003,0.004,0.006,0.004
518,0.002,0.002,0.005,0.001,0.002,0.002,0.003,0.004,0.003,0.002,0.005,0.004
519,0.002,0.002,0.004,0.001,0.001,0.002,0.002,0.005,0.002,0.002,0.004,0.003
520,0.002,0.002,0.004,0.001,0.001,0.001,0.002,0.004,0.003,0.003,0.005,0.004
521,0.002,0.0,0.004,0.0,0.001,0.001,0.001,0.004,0.002,0.003,0.005,0.003
522,0.001,0.001,0.003,0.0,0.001,0.001,0.001,0.003,0.002,0.003,0.005,0.003
523,0.002,0.002,0.005,0.001,0.002,0.001,0.002,0.004,0.002,0.004,0.005,0.004
524,0.003,0.003,0.007,0.002,0.004,0.002,0.003,0.005,0.003,0.005,0.007,0.005
525,0.003,0.003,0.006,0.002,0.003,0.002,0.003,0.005,0.003,0.005,0.007,0.005
526,0.001,0.001,0.004,0.001,0.002,0.001,0.002,0.004,0.002,0.004,0.006,0.004
527,0.001,0.001,0.003,0.001,0.001,0.0,0.002,0.004,0.002,0.004,0.005,0.004
528,0.002,0.002,0.004,0.001,0.002,0.0,0.001,0.004,0.002,0.003,0.005,0.004
529,0.002,0.002,0.005,0.0,0.002,0.0,0.001,0.003,0.001,0.002,0.005,0.003
530,0.002,0.002,0.005,0.001,0.002,0.0,0.001,0.003,0.002,0.003,0.006,0.003
531,0.001,0.0,0.005,-0.001,0.0,0.0,0.0,0.003,0.001,0.003,0.005,0.002
532,0.001,0.0,0.005,0.0,0.001,0.0,0.001,0.003,0.002,0.003,0.005,0.003
533,0.001,0.0,0.004,-0.001,0.002,0.001,0.001,0.003,0.002,0.003,0.005,0.003
534,0.002,0.001,0.005,0.0,0.002,0.001,0.001,0.004,0.002,0.003,0.006,0.004
535,0.001,0.001,0.004,0.0,0.002,0.0,0.001,0.004,0.003,0.003,0.005,0.004
536,0.001,0.0,0.004,-0.001,0.001,0.0,0.001,0.003,0.001,0.003,0.005,0.003
537,0.0,-0.001,0.002,-0.001,0.0,-0.001,0.001,0.002,0.0,0.002,0.004,0.002
538,-0.001,-0.001,0.002,-0.002,0.0,-0.001,0.0,0.002,0.0,0.001,0.004,0.002
539,-0.001,-0.001,0.003,-0.002,0.0,-0.001,0.0,0.003,0.0,0.002,0.004,0.003
540,0.0,-0.001,0.003,-0.002,0.0,-0.001,0.0,0.003,0.001,0.003,0.005,0.003
541,0.002,0.001,0.005,0.0,0.002,0.001,0.002,0.004,0.003,0.004,0.006,0.004
542,0.005,0.004,0.007,0.003,0.004,0.004,0.004,0.006,0.005,0.007,0.008,0.006
543,0.006,0.005,0.008,0.004,0.005,0.005,0.005,0.007,0.006,0.007,0.009,0.007
544,0.004,0.004,0.007,0.003,0.004,0.004,0.004,0.006,0.005,0.006,0.009,0.007
545,0.003,0.003,0.007,0.002,0.002,0.002,0.003,0.005,0.004,0.006,0.008,0.006
546,0.003,0.003,0.007,0.002,0.003,0.002,0.004,0.006,0.004,0.006,0.008,0.007
547,0.002,0.003,0.006,0.002,0.004,0.002,0.003,0.005,0.003,0.006,0.008,0.006
548,0.002,0.002,0.006,0.001,0.003,0.002,0.002,0.004,0.002,0.005,0.007,0.005
549,0.003,0.003,0.005,0.001,0.003,0.002,0.002,0.004,0.003,0.005,0.006,0.005
550,0.004,0.004,0.007,0.003,0.003,0.003,0.003,0.006,0.005,0.007,0.007,0.006
551,0.004,0.004,0.006,0.002,0.004,0.002,0.003,0.006,0.005,0.006,0.006,0.005
552,0.003,0.004,0.006,0.002,0.004,0.002,0.002,0.006,0.003,0.005,0.006,0.005
553,0.002,0.003,0.005,0.0,0.003,0.0,0.001,0.004,0.002,0.004,0.006,0.005
554,0.002,0.002,0.005,0.0,0.003,0.001,0.002,0.004,0.002,0.004,0.007,0.004
555,0.004,0.002,0.005,0.001,0.003,0.002,0.003,0.005,0.003,0.006,0.007,0.004
556,0.004,0.003,0.004,0.001,0.003,0.002,0.003,0.006,0.003,0.007,0.006,0.004
557,0.004,0.002,0.004,0.001,0.002,0.001,0.003,0.005,0.003,0.006,0.006,0.004
558,0.002,0.001,0.003,-0.001,0.001,-0.001,0.001,0.002,0.001,0.004,0.005,0.003
559,0.001,0.0,0.004,-0.001,0.0,0.0,0.0,0.001,0.001,0.003,0.004,0.002
560,0.002,0.001,0.005,0.001,0.001,0.001,0.001,0.003,0.002,0.004,0.004,0.003
561,0.004,0.003,0.007,0.003,0.003,0.003,0.003,0.005,0.004,0.005,0.007,0.005
562,0.004,0.002,0.007,0.003,0.003,0.003,0.004,0.005,0.004,0.006,0.008,0.005
563,0.003,0.001,0.005,0.002,0.003,0.002,0.004,0.004,0.003,0.006,0.007,0.005
564,0.004,0.003,0.006,0.002,0.004,0.004,0.004,0.006,0.005,0.008,0.008,0.006
565,0.004,0.004,0.007,0.003,0.004,0.005,0.005,0.007,0.005,0.008,0.008,0.006
566,0.004,0.004,0.007,0.003,0.005,0.005,0.005,0.008,0.005,0.007,0.009,0.007
567,0.005,0.005,0.007,0.003,0.005,0.004,0.005,0.008,0.005,0.006,0.008,0.007
568,0.004,0.003,0.006,0.002,0.005,0.003,0.004,0.007,0.005,0.005,0.007,0.007
569,0.005,0.003,0.007,0.003,0.005,0.004,0.004,0.007,0.005,0.006,0.007,0.008
570,0.006,0.004,0.007,0.004,0.005,0.004,0.005,0.008,0.006,0.007,0.009,0.008
571,0.007,0.005,0.007,0.004,0.006,0.004,0.005,0.008,0.005,0.006,0.009,0.007
572,0.007,0.005,0.008,0.004,0.006,0.004,0.005,0.008,0.005,0.006,0.01,0.007
573,0.006,0.006,0.009,0.005,0.007,0.005,0.006,0.008,0.006,0.007,0.01,0.008
574,0.007,0.007,0.009,0.005,0.007,0.006,0.007,0.009,0.007,0.008,0.01,0.009
575,0.009,0.007,0.01,0.007,0.008,0.007,0.008,0.01,0.008,0.01,0.012,0.01
576,0.009,0.007,0.01,0.007,0.009,0.007,0.008,0.011,0.009,0.011,0.012,0.01
577,0.008,0.007,0.011,0.007,0.009,0.008,0.008,0.012,0.009,0.011,0.012,0.01
578,0.006,0.004,0.007,0.003,0.006,0.005,0.005,0.007,0.006,0.007,0.01,0.006
579,0.004,0.001,0.004,0.001,0.002,0.001,0.002,0.003,0.002,0.004,0.006,0.004
580,0.002,0.0,0.003,0.0,0.001,0.0,0.001,0.003,0.001,0.003,0.005,0.003
581,0.001,-0.001,0.003,0.001,0.001,-0.001,0.001,0.004,0.002,0.003,0.004,0.003
582,0.0,0.0,0.004,0.001,0.003,0.001,0.001,0.004,0.002,0.004,0.005,0.003
583,0.001,0.0,0.005,0.001,0.003,0.002,0.001,0.004,0.003,0.005,0.006,0.003
584,0.004,0.003,0.009,0.003,0.006,0.006,0.004,0.007,0.006,0.008,0.011,0.006
585,0.006,0.004,0.01,0.004,0.006,0.005,0.006,0.009,0.007,0.009,0.012,0.008
586,0.007,0.005,0.01,0.005,0.007,0.006,0.007,0.01,0.008,0.009,0.011,0.009
587,0.006,0.005,0.009,0.004,0.006,0.005,0.005,0.009,0.007,0.007,0.009,0.008
588,0.006,0.003,0.007,0.002,0.004,0.003,0.003,0.006,0.004,0.005,0.006,0.006
589,0.005,0.001,0.006,0.0,0.002,0.0,0.001,0.003,0.002,0.004,0.005,0.003
590,0.004,0.001,0.004,0.0,0.002,0.0,0.0,0.002,0.001,0.004,0.005,0.002
591,0.003,0.003,0.005,0.002,0.004,0.002,0.002,0.004,0.004,0.006,0.007,0.005
592,0.004,0.004,0.007,0.003,0.003,0.004,0.003,0.007,0.005,0.008,0.008,0.007
593,0.003,0.003,0.006,0.001,0.001,0.002,0.001,0.005,0.004,0.006,0.006,0.005
594,0.003,0.002,0.004,0.0,0.001,0.0,0.0,0.002,0.002,0.004,0.005,0.003
595,0.002,0.002,0.003,0.001,0.002,0.001,0.001,0.003,0.002,0.003,0.005,0.003
596,0.004,0.004,0.006,0.003,0.005,0.004,0.004,0.006,0.005,0.007,0.008,0.006
597,0.006,0.005,0.007,0.004,0.007,0.005,0.005,0.008,0.007,0.009,0.01,0.009
598,0.007,0.006,0.009,0.006,0.007,0.006,0.007,0.009,0.007,0.009,0.011,0.01
599,0.009,0.007,0.01,0.007,0.008,0.007,0.008,0.009,0.007,0.01,0.012,0.011
600,0.009,0.007,0.009,0.005,0.006,0.006,0.007,0.009,0.006,0.008,0.01,0.009
601,0.003,0.001,0.004,0.0,0.001,0.001,0.001,0.006,0.003,0.003,0.005,0.004
602,-0.002,-0.004,-0.001,-0.004,-0.002,-0.003,-0.004,0.001,-0.001,-0.001,0.001,0.0
603,-0.003,-0.004,-0.001,-0.004,-0.003,-0.003,-0.004,-0.001,-0.002,0.0,0.002,0.0
604,-0.002,-0.003,0.001,-0.003,-0.002,-0.003,-0.003,-0.001,-0.002,0.0,0.002,0.0
605,-0.001,-0.003,0.001,-0.002,-0.002,-0.002,-0.004,-0.001,-0.002,0.001,0.002,0.0
606,-0.002,-0.005,0.0,-0.004,-0.002,-0.003,-0.005,-0.002,-0.003,-0.002,0.0,-0.002
607,-0.002,-0.005,0.0,-0.004,-0.002,-0.003,-0.005,-0.002,-0.002,-0.001,0.001,-0.001
608,0.002,0.0,0.005,0.001,0.003,0.002,0.001,0.003,0.002,0.003,0.005,0.003
609,0.007,0.004,0.01,0.005,0.006,0.005,0.007,0.008,0.006,0.009,0.011,0.009
610,0.01,0.007,0.012,0.008,0.009,0.008,0.009,0.012,0.01,0.011,0.014,0.013
611,0.008,0.006,0.009,0.006,0.006,0.006,0.007,0.009,0.007,0.009,0.012,0.01
612,0.006,0.006,0.008,0.005,0.006,0.006,0.006,0.008,0.006,0.008,0.009,0.008
613,0.007,0.007,0.01,0.006,0.007,0.008,0.007,0.008,0.007,0.009,0.009,0.008
614,0.007,0.006,0.009,0.005,0.007,0.006,0.005,0.007,0.007,0.008,0.009,0.008
615,0.004,0.004,0.006,0.003,0.005,0.004,0.003,0.005,0.005,0.006,0.008,0.005
616,0.004,0.003,0.006,0.004,0.005,0.003,0.002,0.005,0.004,0.005,0.006,0.004
617,0.003,0.003,0.006,0.004,0.004,0.004,0.002,0.005,0.005,0.006,0.006,0.004
618,0.002,0.002,0.004,0.001,0.002,0.002,0.0,0.003,0.003,0.004,0.005,0.003
619,-0.002,-0.003,0.0,-0.005,-0.005,-0.004,-0.005,-0.002,-0.002,-0.001,-0.001,-0.002
620,-0.004,-0.007,-0.005,-0.008,-0.008,-0.008,-0.008,-0.006,-0.006,-0.004,-0.003,-0.006
621,-0.001,-0.004,-0.001,-0.004,-0.005,-0.005,-0.005,-0.002,-0.003,-0.002,-0.001,-0.004
622,0.003,0.002,0.004,0.001,0.002,0.001,0.0,0.002,0.002,0.002,0.004,0.002
623,0.004,0.003,0.006,0.002,0.003,0.002,0.002,0.003,0.003,0.003,0.005,0.003
624,0.0,-0.001,0.001,-0.002,-0.002,-0.003,-0.002,-0.001,-0.002,0.0,0.001,-0.001
625,0.0,-0.002,0.0,-0.004,-0.004,-0.004,-0.002,-0.001,-0.003,-0.001,0.0,-0.001
626,0.0,-0.002,0.002,-0.003,-0.002,-0.002,-0.001,0.001,-0.001,0.0,0.001,0.001
627,-0.002,-0.003,0.001,-0.003,-0.003,-0.002,-0.002,0.0,-0.001,-0.002,0.001,0.0
628,-0.005,-0.006,-0.002,-0.006,-0.006,-0.005,-0.005,-0.004,-0.004,-0.004,-0.001,-0.003
629,-0.004,-0.006,-0.002,-0.006,-0.005,-0.004,-0.005,-0.004,-0.004,-0.003,0.0,-0.003
630,0.001,0.0,0.003,-0.001,0.001,0.001,0.001,0.001,0.0,0.002,0.004,0.002
631,0.003,0.003,0.008,0.003,0.004,0.003,0.004,0.005,0.003,0.005,0.007,0.005
632,0.003,0.001,0.007,0.001,0.002,0.001,0.003,0.004,0.002,0.003,0.006,0.004
633,0.0,-0.002,0.003,-0.003,-0.001,-0.002,-0.001,0.0,-0.002,0.0,0.002,0.0
634,0.0,-0.002,0.001,-0.004,-0.002,-0.003,-0.002,-0.001,-0.003,0.0,0.002,-0.001
635,0.001,0.0,0.003,-0.003,-0.001,-0.002,-0.001,0.0,-0.001,0.001,0.002,0.0
636,0.003,0.001,0.005,0.0,0.001,0.001,0.001,0.003,0.002,0.002,0.005,0.003
637,0.005,0.004,0.008,0.003,0.004,0.003,0.003,0.006,0.004,0.004,0.008,0.005
638,0.003,0.003,0.007,0.003,0.004,0.002,0.003,0.006,0.003,0.004,0.009,0.006
639,0.001,0.002,0.005,0.001,0.002,0.002,0.003,0.005,0.001,0.005,0.007,0.005
640,-0.002,-0.001,0.002,-0.001,-0.001,0.0,0.001,0.003,-0.001,0.003,0.004,0.003
641,-0.002,-0.003,0.0,-0.003,-0.002,-0.002,0.0,0.0,-0.002,0.001,0.002,0.0
642,0.0,-0.001,0.003,0.001,0.001,0.001,0.001,0.003,0.002,0.002,0.004,0.003
643,0.001,0.001,0.006,0.003,0.003,0.003,0.003,0.005,0.006,0.005,0.007,0.006
644,0.001,0.002,0.007,0.003,0.002,0.002,0.003,0.006,0.005,0.007,0.007,0.007
645,0.001,0.001,0.006,0.0,0.001,0.0,0.001,0.004,0.003,0.005,0.005,0.004
646,0.001,0.001,0.004,-0.001,0.0,-0.001,0.0,0.002,0.001,0.002,0.003,0.001
647,0.001,0.001,0.003,0.0,0.001,0.0,0.0,0.003,0.0,0.001,0.003,0.002
648,0.003,0.002,0.005,0.002,0.002,0.002,0.001,0.005,0.002,0.004,0.006,0.005
649,0.007,0.006,0.01,0.005,0.007,0.006,0.006,0.009,0.007,0.01,0.011,0.01
650,0.009,0.009,0.013,0.007,0.01,0.008,0.009,0.011,0.01,0.012,0.012,0.011
651,0.007,0.006,0.009,0.005,0.008,0.005,0.008,0.008,0.006,0.008,0.009,0.008
652,0.003,0.002,0.004,0.002,0.003,0.001,0.003,0.004,0.002,0.004,0.005,0.004
653,0.002,0.001,0.003,0.0,0.001,0.001,0.001,0.003,0.002,0.004,0.005,0.003
654,0.003,0.003,0.005,0.002,0.003,0.002,0.002,0.005,0.004,0.006,0.008,0.005
655,0.001,0.001,0.003,0.0,0.002,0.001,0.001,0.003,0.002,0.004,0.006,0.004
656,0.001,-0.001,0.004,0.0,0.001,0.0,0.001,0.003,0.003,0.004,0.005,0.004
657,0.002,0.002,0.006,0.002,0.002,0.002,0.003,0.004,0.004,0.006,0.007,0.006
658,0.003,0.004,0.007,0.002,0.003,0.003,0.003,0.005,0.004,0.007,0.007,0.007
659,0.002,0.004,0.007,0.001,0.003,0.003,0.001,0.005,0.002,0.006,0.006,0.005
660,0.002,0.003,0.006,0.0,0.002,0.002,0.0,0.004,0.001,0.005,0.006,0.005
661,0.004,0.003,0.005,0.001,0.002,0.003,0.001,0.005,0.002,0.005,0.006,0.004
662,0.005,0.004,0.006,0.002,0.004,0.004,0.003,0.005,0.003,0.004,0.006,0.005
663,0.006,0.005,0.007,0.003,0.004,0.004,0.003,0.006,0.003,0.003,0.006,0.004
664,0.004,0.003,0.007,0.002,0.002,0.002,0.002,0.005,0.002,0.003,0.004,0.003
665,0.001,0.0,0.003,-0.001,0.0,-0.001,-0.002,0.001,-0.001,0.001,0.002,0.001
666,-0.001,-0.002,0.0,-0.004,-0.002,-0.005,-0.005,-0.002,-0.004,-0.001,0.001,-0.002
667,0.002,0.0,0.002,-0.002,0.0,-0.002,-0.002,0.001,-0.001,0.0,0.003,0.001
668,0.005,0.003,0.006,0.001,0.003,0.001,0.002,0.004,0.001,0.003,0.005,0.003
669,0.007,0.005,0.008,0.004,0.006,0.003,0.004,0.007,0.004,0.006,0.008,0.006
670,0.007,0.005,0.007,0.004,0.005,0.002,0.004,0.007,0.004,0.006,0.008,0.006
671,0.006,0.005,0.006,0.003,0.003,0.003,0.003,0.006,0.006,0.004,0.007,0.006
672,0.005,0.004,0.007,0.002,0.003,0.004,0.004,0.005,0.006,0.005,0.006,0.007
673,0.003,0.004,0.007,0.002,0.004,0.004,0.005,0.005,0.004,0.006,0.006,0.007
674,0.004,0.005,0.008,0.004,0.005,0.005,0.006,0.007,0.004,0.007,0.009,0.008
675,0.004,0.002,0.006,0.002,0.003,0.003,0.004,0.006,0.004,0.006,0.009,0.005
676,0.001,-0.001,0.005,0.001,0.0,-0.001,0.001,0.003,0.001,0.003,0.005,0.002
677,-0.002,-0.003,0.003,-0.002,-0.003,-0.004,-0.002,0.0,0.0,0.0,0.002,-0.001
678,-0.001,-0.001,0.003,-0.001,-0.002,-0.002,-0.002,0.0,0.001,0.0,0.002,0.0
679,0.002,0.003,0.005,0.002,0.001,0.001,0.001,0.004,0.002,0.003,0.004,0.003
680,0.007,0.007,0.009,0.006,0.005,0.005,0.005,0.007,0.004,0.006,0.007,0.007
681,0.008,0.008,0.009,0.006,0.005,0.005,0.005,0.007,0.005,0.006,0.007,0.006
682,0.005,0.003,0.005,0.003,0.002,0.001,0.002,0.005,0.002,0.003,0.004,0.003
683,0.003,0.001,0.003,-0.001,0.0,-0.001,0.0,0.002,0.0,0.001,0.004,0.003
684,0.004,0.002,0.005,0.0,0.003,0.001,0.001,0.003,0.001,0.003,0.006,0.004
685,0.005,0.003,0.005,0.002,0.004,0.002,0.001,0.004,0.002,0.004,0.006,0.004
686,0.003,0.001,0.004,0.001,0.002,0.002,-0.001,0.003,0.002,0.003,0.005,0.002
687,0.003,0.001,0.005,0.001,0.001,0.002,0.0,0.003,0.001,0.004,0.005,0.004
688,0.004,0.004,0.008,0.003,0.002,0.005,0.003,0.004,0.003,0.006,0.007,0.007
689,0.004,0.005,0.007,0.003,0.002,0.004,0.003,0.004,0.003,0.006,0.007,0.006
690,0.005,0.005,0.008,0.004,0.004,0.004,0.003,0.006,0.005,0.005,0.006,0.004
691,0.008,0.008,0.011,0.008,0.008,0.007,0.008,0.01,0.009,0.009,0.01,0.009
692,0.008,0.008,0.012,0.008,0.009,0.007,0.009,0.009,0.009,0.009,0.01,0.011
693,0.005,0.004,0.008,0.004,0.005,0.004,0.005,0.006,0.005,0.006,0.008,0.008
694,0.001,0.001,0.005,0.0,0.001,-0.001,0.001,0.002,0.001,0.002,0.005,0.003
695,0.001,0.0,0.004,-0.002,0.0,-0.001,-0.001,0.001,-0.001,0.002,0.004,0.002
696,0.0,-0.001,0.002,-0.002,-0.001,-0.002,-0.002,0.001,-0.002,0.001,0.003,0.001
697,0.0,-0.002,0.002,-0.001,-0.002,-0.002,-0.003,0.0,-0.002,0.001,0.001,0.001
698,0.0,-0.002,0.003,0.0,-0.001,-0.003,-0.001,0.0,-0.001,0.001,0.0,0.001
699,-0.002,-0.002,0.002,-0.004,-0.002,-0.002,-0.002,-0.001,-0.003,0.0,-0.001,0.001
700,-0.003,-0.002,0.0,-0.004,-0.001,-0.003,-0.001,-0.001,-0.002,-0.001,0.0,0.0
701,0.0,-0.001,0.001,-0.002,0.0,-0.003,-0.001,0.0,0.0,0.0,0.001,0.001
702,0.003,-0.001,0.003,-0.001,0.001,-0.002,-0.001,0.001,0.0,0.001,0.002,0.0
703,0.001,-0.001,0.002,-0.002,-0.001,-0.002,-0.003,0.0,-0.002,0.0,0.001,-0.001
704,0.0,0.0,0.001,-0.002,-0.001,-0.002,-0.002,0.001,-0.003,0.0,0.001,0.001
705,-0.001,0.001,0.002,-0.001,0.0,-0.001,0.0,0.001,-0.001,0.002,0.002,0.003
706,0.0,0.002,0.004,0.001,0.0,0.0,-0.001,0.002,0.0,0.002,0.004,0.004
707,0.001,0.003,0.006,0.002,0.002,0.002,0.002,0.004,0.001,0.003,0.006,0.004
708,0.005,0.005,0.008,0.004,0.005,0.005,0.005,0.006,0.005,0.007,0.008,0.006
709,0.01,0.008,0.012,0.007,0.009,0.008,0.009,0.009,0.008,0.01,0.01,0.009
710,0.011,0.01,0.013,0.008,0.009,0.009,0.009,0.011,0.009,0.01,0.01,0.01
711,0.008,0.008,0.011,0.007,0.007,0.008,0.007,0.01,0.008,0.008,0.01,0.008
712,0.005,0.004,0.008,0.004,0.005,0.005,0.004,0.007,0.007,0.005,0.008,0.007
713,0.004,0.004,0.007,0.004,0.005,0.003,0.003,0.006,0.006,0.005,0.008,0.007
714,0.005,0.004,0.007,0.002,0.004,0.002,0.003,0.006,0.004,0.005,0.008,0.007
715,0.006,0.004,0.007,0.002,0.005,0.003,0.004,0.007,0.004,0.008,0.009,0.007
716,0.005,0.005,0.006,0.002,0.004,0.003,0.002,0.006,0.003,0.006,0.007,0.006
717,0.006,0.005,0.005,0.002,0.004,0.004,0.003,0.006,0.002,0.004,0.007,0.006
718,0.006,0.005,0.005,0.002,0.004,0.004,0.003,0.006,0.002,0.004,0.007,0.007
719,0.004,0.004,0.004,0.002,0.003,0.003,0.004,0.006,0.002,0.005,0.007,0.007
720,0.003,0.0,0.003,0.001,0.002,0.002,0.001,0.005,0.001,0.004,0.004,0.005
721,0.001,-0.002,0.0,-0.003,-0.001,-0.001,-0.001,0.001,-0.003,0.0,0.001,0.001
722,0.002,0.0,0.001,-0.002,-0.001,-0.001,-0.002,0.001,-0.002,-0.001,0.001,0.001
723,0.002,0.0,0.001,0.0,-0.002,-0.002,-0.001,0.0,-0.001,0.0,0.001,0.001
724,0.003,0.001,0.002,0.0,-0.001,-0.003,-0.001,0.001,0.0,0.0,0.0,0.0
725,0.002,0.001,0.002,-0.001,-0.001,-0.003,0.0,0.0,0.0,0.001,0.001,0.0
726,0.003,0.004,0.006,0.002,0.003,0.002,0.004,0.003,0.004,0.005,0.006,0.005
727,0.005,0.005,0.007,0.005,0.005,0.004,0.004,0.005,0.005,0.006,0.008,0.008
728,0.005,0.004,0.007,0.003,0.005,0.004,0.003,0.005,0.005,0.005,0.006,0.007
729,0.001,0.0,0.002,-0.003,0.0,0.0,-0.001,0.001,0.001,0.003,0.002,0.001
730,-0.003,-0.005,-0.002,-0.007,-0.005,-0.005,-0.004,-0.002,-0.004,0.0,-0.001,-0.004
731,-0.004,-0.005,-0.003,-0.007,-0.007,-0.007,-0.006,-0.004,-0.006,-0.002,-0.003,-0.004
732,-0.004,-0.003,-0.001,-0.006,-0.005,-0.005,-0.005,-0.003,-0.006,-0.001,-0.001,-0.002
733,-0.001,-0.001,0.002,-0.002,-0.002,-0.002,-0.002,0.0,-0.003,0.001,0.001,0.001
734,0.0,0.0,0.003,0.001,0.0,0.0,0.001,0.002,-0.002,0.003,0.003,0.003
735,0.0,0.0,0.002,0.0,0.0,-0.002,0.0,0.002,-0.001,0.002,0.002,0.002
736,0.001,0.0,0.003,-0.001,0.001,0.0,0.001,0.003,0.001,0.004,0.004,0.003
737,0.004,0.002,0.007,0.001,0.004,0.004,0.002,0.005,0.003,0.006,0.005,0.005
738,0.008,0.006,0.011,0.005,0.01,0.009,0.006,0.009,0.006,0.009,0.01,0.011
739,0.007,0.007,0.012,0.004,0.009,0.008,0.007,0.008,0.007,0.008,0.01,0.009
740,0.005,0.006,0.011,0.005,0.007,0.004,0.006,0.006,0.005,0.006,0.008,0.007
741,0.005,0.006,0.011,0.005,0.005,0.004,0.004,0.004,0.005,0.006,0.008,0.006
742,0.002,0.003,0.008,0.002,0.001,0.002,0.001,0.002,0.002,0.003,0.005,0.004
743,-0.001,-0.001,0.002,-0.003,-0.004,-0.003,-0.003,-0.001,-0.001,-0.001,0.002,-0.001
744,-0.001,-0.002,0.001,-0.005,-0.004,-0.004,-0.004,-0.001,-0.003,-0.002,0.0,-0.001
745,0.0,-0.001,0.003,-0.003,-0.002,-0.003,-0.002,-0.001,-0.002,-0.001,0.001,0.0
746,0.0,0.0,0.003,-0.001,-0.003,-0.002,-0.001,0.0,-0.001,0.0,0.002,0.0
747,-0.001,-0.001,0.002,-0.001,-0.003,-0.002,-0.002,-0.001,-0.003,-0.001,0.001,-0.001
748,-0.001,0.0,0.002,0.0,-0.001,0.001,-0.001,0.0,-0.003,-0.001,0.001,0.002
749,-0.002,0.0,0.001,0.0,0.0,0.001,0.0,0.0,-0.003,-0.002,0.0,0.001
750,0.0,0.0,0.0,0.0,0.0,0.0,0.0,0.0,0.0,0.0,0.0,0.0
751,0.005,0.003,0.004,0.003,0.002,0.004,0.004,0.005,0.006,0.006,0.004,0.004
752,0.008,0.006,0.007,0.006,0.003,0.005,0.007,0.01,0.009,0.008,0.009,0.007
753,0.002,0.002,0.004,0.002,0.0,-0.002,0.001,0.006,0.002,0.002,0.003,0.002
754,-0.003,-0.004,-0.002,-0.005,-0.006,-0.007,-0.006,-0.001,-0.007,-0.004,-0.004,-0.005
755,-0.003,-0.004,-0.002,-0.007,-0.006,-0.005,-0.006,-0.004,-0.006,-0.005,-0.005,-0.006
756,0.002,0.0,0.003,-0.001,0.0,0.0,-0.002,0.0,0.0,-0.002,0.002,0.0
757,0.004,0.003,0.007,0.004,0.004,0.004,0.003,0.004,0.005,0.003,0.006,0.005
758,0.005,0.004,0.009,0.006,0.007,0.006,0.006,0.007,0.007,0.007,0.009,0.007
759,0.005,0.006,0.009,0.006,0.007,0.006,0.006,0.007,0.007,0.008,0.01,0.007
760,0.005,0.005,0.009,0.004,0.006,0.004,0.005,0.007,0.006,0.008,0.01,0.007
761,0.002,0.003,0.006,0.001,0.003,0.0,0.0,0.004,0.003,0.004,0.006,0.004
762,0.001,0.0,0.005,-0.001,0.001,-0.003,-0.002,0.003,0.001,0.003,0.003,0.001
763,-0.001,-0.001,0.003,-0.001,-0.001,-0.004,-0.004,0.001,-0.001,0.001,-0.001,-0.001
764,0.0,0.0,0.004,0.0,0.001,-0.001,-0.001,0.003,-0.002,0.002,0.001,0.0
765,0.003,0.003,0.007,0.003,0.003,0.003,0.003,0.005,0.0,0.004,0.003,0.003
766,0.006,0.004,0.008,0.004,0.005,0.005,0.003,0.006,0.002,0.005,0.007,0.005
767,0.004,0.002,0.007,0.003,0.004,0.002,0.002,0.005,0.001,0.004,0.005,0.005
768,0.002,-0.001,0.002,0.0,0.0,-0.002,-0.001,0.003,0.0,0.0,0.002,0.001
769,-0.001,-0.004,-0.001,-0.005,-0.004,-0.006,-0.003,0.0,-0.003,-0.002,-0.001,-0.001
770,-0.001,-0.002,0.0,-0.004,-0.003,-0.003,-0.002,-0.001,-0.002,0.0,0.001,0.0
771,-0.001,-0.002,0.0,-0.004,-0.003,-0.003,-0.001,-0.001,-0.002,0.0,0.001,0.0
772,-0.002,-0.003,-0.001,-0.004,-0.004,-0.003,-0.004,-0.001,-0.003,-0.002,0.002,-0.002
773,-0.001,-0.003,0.0,-0.002,-0.004,-0.004,-0.004,0.002,-0.002,-0.002,0.002,-0.002
774,-0.001,-0.001,0.002,0.001,-0.001,-0.003,-0.002,0.003,0.002,0.001,0.004,0.001
775,-0.001,0.003,0.005,0.002,0.001,0.0,0.002,0.004,0.002,0.002,0.005,0.004
776,0.004,0.005,0.008,0.003,0.003,0.005,0.004,0.006,0.004,0.006,0.01,0.008
777,0.008,0.007,0.009,0.005,0.004,0.007,0.006,0.007,0.008,0.009,0.013,0.009
778,0.009,0.008,0.009,0.007,0.004,0.008,0.005,0.008,0.009,0.01,0.013,0.01
779,0.006,0.005,0.006,0.003,0.001,0.005,0.002,0.005,0.004,0.006,0.009,0.006
780,0.002,-0.001,0.001,-0.001,0.0,0.003,-0.002,0.001,0.0,0.003,0.003,0.002
781,-0.005,-0.007,-0.003,-0.007,-0.004,-0.002,-0.005,-0.002,-0.003,-0.002,-0.001,-0.003
782,-0.005,-0.007,-0.002,-0.006,-0.003,-0.003,-0.002,0.0,-0.003,-0.002,0.001,-0.001
783,-0.005,-0.004,-0.001,-0.005,-0.002,-0.003,-0.001,0.001,-0.003,-0.003,0.002,0.0
784,-0.002,-0.002,0.0,-0.003,-0.002,-0.001,0.002,0.001,0.0,-0.001,0.002,0.001
785,0.0,-0.002,0.001,-0.003,-0.001,-0.001,0.0,0.001,0.002,0.0,0.002,0.0
786,0.001,-0.003,0.004,0.0,-0.001,-0.001,0.0,0.003,0.003,0.002,0.003,0.001
787,-0.001,-0.004,0.004,-0.002,-0.003,-0.002,-0.002,0.002,-0.002,0.0,0.003,0.001
788,-0.005,-0.004,-0.001,-0.007,-0.007,-0.006,-0.005,-0.003,-0.005,-0.004,-0.001,-0.003
789,-0.003,-0.002,0.0,-0.004,-0.005,-0.004,-0.004,-0.003,-0.004,-0.002,0.0,0.0
790,0.001,0.004,0.006,0.0,0.001,0.001,0.002,0.003,0.001,0.005,0.006,0.004
791,0.006,0.007,0.011,0.007,0.008,0.008,0.006,0.009,0.006,0.01,0.011,0.008
792,0.011,0.012,0.014,0.014,0.012,0.013,0.011,0.015,0.013,0.014,0.014,0.013
793,0.014,0.015,0.016,0.016,0.015,0.017,0.015,0.018,0.017,0.018,0.017,0.016
794,0.009,0.013,0.014,0.01,0.011,0.014,0.013,0.016,0.014,0.016,0.015,0.015
795,0.002,0.005,0.007,0.001,0.003,0.005,0.002,0.007,0.006,0.006,0.01,0.007
796,-0.002,0.001,0.002,-0.002,-0.001,-0.001,-0.004,0.002,0.002,0.0,0.004,0.003
797,0.002,0.003,0.003,-0.002,0.003,0.002,-0.001,0.004,0.003,0.001,0.003,0.001
798,0.006,0.007,0.01,0.006,0.008,0.008,0.009,0.012,0.009,0.009,0.011,0.008
799,0.01,0.01,0.013,0.009,0.008,0.011,0.011,0.014,0.011,0.014,0.018,0.013
800,0.005,0.007,0.008,0.006,0.004,0.004,0.006,0.005,0.006,0.007,0.013,0.009
801,0.0,0.001,0.004,-0.002,-0.001,-0.001,-0.001,-0.002,-0.001,0.001,0.006,0.003
802,-0.001,0.0,0.005,-0.003,-0.002,-0.002,-0.002,0.0,0.0,0.002,0.004,0.002
803,0.004,0.005,0.006,0.0,0.001,0.004,0.001,0.004,0.003,0.008,0.007,0.004
804,0.004,0.002,0.003,0.002,0.003,0.003,0.003,0.002,0.001,0.005,0.006,0.004
805,0.0,0.0,0.002,0.0,0.005,0.004,0.005,0.003,0.001,0.005,0.006,0.004
806,0.002,0.004,0.005,0.0,0.005,0.007,0.005,0.005,0.004,0.006,0.007,0.007
807,0.002,0.005,0.007,0.002,0.006,0.009,0.004,0.006,0.007,0.01,0.008,0.007
808,0.001,0.002,0.007,0.001,0.004,0.003,-0.001,0.002,0.005,0.007,0.005,0.007
809,0.001,0.0,0.006,0.001,0.006,0.003,-0.002,0.005,0.006,0.004,0.006,0.008
810,0.0,0.0,0.004,0.0,0.003,0.002,-0.003,0.005,0.004,-0.001,0.005,0.008
811,0.0,0.0,0.001,0.001,0.0,0.0,-0.001,0.007,0.005,0.003,0.006,0.006
812,0.001,0.002,0.002,0.0,0.0,-0.002,0.0,0.004,0.003,0.006,0.007,0.005
813,0.003,0.001,0.003,0.0,0.001,-0.001,-0.001,0.002,0.003,0.008,0.008,0.007
814,0.0,-0.003,-0.002,-0.002,0.0,-0.003,-0.004,-0.002,-0.004,0.002,-0.001,0.003
815,-0.001,-0.003,-0.002,-0.002,-0.001,-0.003,-0.002,-0.001,-0.004,0.0,-0.001,0.001
816,-0.003,0.0,0.0,-0.002,-0.001,-0.001,0.0,0.0,-0.001,-0.001,0.002,0.0
817,-0.001,0.0,0.003,0.0,0.0,-0.001,0.001,0.001,0.001,0.001,0.004,0.002
818,0.004,0.003,0.003,0.003,0.003,0.003,-0.001,0.005,0.0,0.007,0.003,0.004
819,0.007,0.004,0.005,0.003,0.003,0.005,0.002,0.009,0.002,0.009,0.005,0.006
820,0.006,0.004,0.005,0.0,0.002,0.004,0.002,0.008,0.004,0.006,0.006,0.005
821,0.0,0.0,0.003,-0.003,-0.003,-0.002,-0.003,0.002,0.0,-0.001,0.001,0.001
822,-0.001,-0.002,0.001,-0.005,-0.004,-0.005,-0.007,-0.002,-0.005,-0.003,-0.003,-0.002
823,0.002,0.0,0.004,-0.002,-0.002,-0.002,-0.004,0.0,-0.003,0.0,-0.002,-0.002
824,0.004,0.003,0.005,0.0,0.001,0.0,-0.001,0.002,0.0,0.002,0.001,0.0
825,0.002,0.002,0.003,-0.002,0.0,-0.001,-0.005,0.0,-0.002,-0.002,0.0,-0.003
826,-0.002,-0.003,-0.001,-0.005,-0.005,-0.004,-0.006,-0.004,-0.006,-0.004,-0.002,-0.005
827,-0.001,-0.001,0.002,-0.002,-0.004,-0.003,-0.003,-0.002,-0.003,-0.001,0.001,-0.001
828,-0.002,0.001,0.005,0.0,-0.002,-0.001,-0.002,0.0,-0.002,0.002,0.003,0.002
829,0.002,0.006,0.008,0.003,0.003,0.001,0.001,0.005,0.002,0.004,0.006,0.004
830,0.002,0.006,0.005,0.002,0.002,0.0,0.001,0.005,0.001,0.004,0.004,0.002
831,-0.001,0.003,0.002,-0.002,-0.003,-0.004,-0.001,0.004,0.001,0.0,0.001,0.0
832,-0.006,-0.003,-0.002,-0.007,-0.007,-0.004,-0.004,0.0,0.0,-0.003,-0.002,-0.002
833,-0.004,-0.005,-0.001,-0.005,-0.004,-0.004,-0.002,-0.001,-0.003,-0.002,0.0,-0.002
834,-0.002,-0.004,0.002,-0.003,0.0,-0.003,-0.002,-0.002,-0.004,0.001,-0.001,-0.002
835,-0.003,-0.004,0.002,-0.002,-0.002,-0.004,-0.004,-0.003,-0.005,0.0,-0.001,-0.003
836,-0.005,-0.006,0.0,-0.004,-0.004,-0.004,-0.006,-0.003,-0.001,-0.003,-0.002,-0.001
837,-0.003,-0.007,-0.003,-0.004,-0.003,-0.004,-0.006,-0.003,-0.003,-0.002,0.0,0.0
838,-0.004,-0.006,-0.006,-0.005,-0.004,-0.002,-0.006,-0.002,-0.004,-0.001,-0.003,-0.004
839,-0.006,-0.006,-0.006,-0.006,-0.009,-0.006,-0.009,-0.004,-0.006,-0.004,-0.001,-0.006
840,-0.007,-0.003,-0.003,-0.007,-0.007,-0.006,-0.01,-0.001,-0.003,-0.005,0.0,-0.002
