,0_0,0_1,0_2,0_3,0_4,0_5,0_6,0_7,0_8,0_9,0_10
190,0.431,0.423,0.415,0.395,0.384,0.469,0.466,0.473,0.293,1.231,0.458
191,0.573,0.503,0.556,0.551,0.534,0.545,0.572,0.542,0.545,1.121,0.565
192,0.648,0.649,0.641,0.665,0.637,0.651,0.66,0.676,0.648,1.433,0.659
193,0.719,0.739,0.719,0.725,0.727,0.723,0.731,0.766,0.704,1.491,0.737
194,0.791,0.781,0.81,0.822,0.793,0.801,0.829,0.851,0.783,1.412,0.83
195,0.866,0.82,0.887,0.889,0.878,0.846,0.88,0.896,0.834,1.252,0.915
196,0.955,0.909,0.982,0.946,0.958,0.897,0.917,0.97,0.903,1.063,0.97
197,1.045,1.04,1.049,1.008,1.029,1.0,0.999,1.065,1.003,1.318,1.019
198,1.068,1.101,1.078,1.044,1.071,1.042,1.063,1.123,1.056,1.453,1.042
199,1.027,1.054,1.057,1.043,1.026,1.028,1.062,1.1,1.058,1.435,1.034
200,0.926,0.962,0.989,0.976,0.959,0.942,0.983,0.994,0.977,1.189,0.968
201,0.83,0.874,0.906,0.892,0.866,0.829,0.877,0.902,0.884,0.853,0.875
202,0.759,0.805,0.831,0.817,0.779,0.752,0.799,0.822,0.812,0.815,0.791
203,0.687,0.734,0.757,0.756,0.706,0.676,0.736,0.753,0.752,0.757,0.725
204,0.625,0.672,0.697,0.697,0.642,0.616,0.673,0.683,0.685,0.733,0.673
205,0.58,0.623,0.653,0.648,0.6,0.579,0.62,0.634,0.635,0.665,0.628
206,0.551,0.596,0.624,0.62,0.574,0.55,0.592,0.607,0.607,0.63,0.597
207,0.541,0.577,0.603,0.601,0.557,0.527,0.572,0.588,0.592,0.58,0.579
208,0.533,0.563,0.596,0.59,0.541,0.517,0.561,0.576,0.583,0.579,0.566
209,0.523,0.552,0.583,0.582,0.534,0.509,0.551,0.569,0.579,0.582,0.564
210,0.52,0.551,0.58,0.584,0.536,0.513,0.546,0.571,0.576,0.574,0.564
211,0.523,0.556,0.581,0.588,0.544,0.517,0.556,0.574,0.579,0.564,0.563
212,0.529,0.564,0.588,0.592,0.546,0.516,0.567,0.58,0.582,0.554,0.569
213,0.535,0.574,0.599,0.595,0.549,0.525,0.575,0.591,0.597,0.563,0.576
214,0.543,0.584,0.611,0.601,0.559,0.533,0.581,0.609,0.608,0.597,0.594
215,0.552,0.593,0.618,0.617,0.573,0.543,0.589,0.62,0.619,0.619,0.607
216,0.567,0.604,0.63,0.636,0.588,0.557,0.606,0.631,0.634,0.649,0.619
217,0.582,0.617,0.644,0.656,0.601,0.569,0.626,0.639,0.648,0.674,0.633
218,0.595,0.63,0.657,0.674,0.618,0.586,0.638,0.654,0.667,0.694,0.647
219,0.606,0.641,0.674,0.685,0.632,0.596,0.648,0.67,0.68,0.714,0.661
220,0.613,0.647,0.681,0.694,0.637,0.603,0.654,0.677,0.686,0.718,0.667
221,0.62,0.658,0.691,0.698,0.642,0.61,0.665,0.686,0.693,0.724,0.675
222,0.627,0.668,0.696,0.701,0.647,0.614,0.671,0.693,0.699,0.729,0.68
223,0.635,0.674,0.701,0.711,0.653,0.62,0.675,0.701,0.707,0.742,0.686
224,0.637,0.674,0.702,0.714,0.654,0.621,0.676,0.704,0.711,0.744,0.688
225,0.631,0.67,0.701,0.71,0.648,0.618,0.675,0.701,0.707,0.741,0.685
226,0.624,0.665,0.697,0.705,0.644,0.615,0.673,0.696,0.704,0.738,0.68
227,0.619,0.66,0.689,0.697,0.64,0.609,0.665,0.691,0.698,0.735,0.673
228,0.613,0.653,0.683,0.693,0.633,0.603,0.656,0.685,0.69,0.725,0.667
229,0.604,0.643,0.673,0.682,0.623,0.594,0.646,0.674,0.68,0.715,0.658
230,0.591,0.631,0.661,0.669,0.61,0.582,0.633,0.661,0.665,0.697,0.646
231,0.576,0.615,0.645,0.654,0.595,0.568,0.616,0.645,0.648,0.68,0.629
232,0.562,0.599,0.629,0.636,0.58,0.553,0.6,0.628,0.631,0.66,0.612
233,0.551,0.586,0.615,0.623,0.568,0.541,0.588,0.615,0.618,0.644,0.599
234,0.543,0.577,0.604,0.611,0.558,0.532,0.579,0.604,0.607,0.633,0.59
235,0.534,0.567,0.592,0.6,0.549,0.524,0.57,0.593,0.597,0.623,0.582
236,0.525,0.558,0.583,0.591,0.541,0.516,0.56,0.585,0.587,0.611,0.572
237,0.516,0.547,0.573,0.581,0.532,0.507,0.551,0.575,0.579,0.597,0.562
238,0.508,0.537,0.564,0.572,0.523,0.499,0.543,0.566,0.571,0.584,0.552
239,0.5,0.527,0.553,0.563,0.513,0.49,0.535,0.558,0.561,0.574,0.543
240,0.49,0.519,0.542,0.552,0.504,0.481,0.526,0.546,0.55,0.565,0.533
241,0.483,0.512,0.533,0.545,0.496,0.473,0.517,0.537,0.541,0.555,0.524
242,0.475,0.505,0.525,0.536,0.489,0.466,0.508,0.529,0.534,0.546,0.517
243,0.467,0.496,0.517,0.527,0.48,0.459,0.499,0.519,0.524,0.538,0.508
244,0.458,0.485,0.506,0.515,0.47,0.45,0.487,0.508,0.513,0.527,0.498
245,0.447,0.473,0.493,0.502,0.458,0.438,0.476,0.496,0.501,0.511,0.486
246,0.436,0.461,0.48,0.489,0.446,0.426,0.464,0.485,0.488,0.493,0.474
247,0.424,0.45,0.467,0.477,0.435,0.415,0.453,0.474,0.476,0.479,0.461
248,0.413,0.438,0.456,0.465,0.424,0.406,0.441,0.463,0.464,0.467,0.449
249,0.401,0.425,0.444,0.452,0.412,0.395,0.429,0.449,0.451,0.454,0.436
250,0.388,0.411,0.429,0.437,0.397,0.38,0.413,0.432,0.435,0.435,0.421
251,0.371,0.393,0.411,0.418,0.38,0.364,0.396,0.412,0.416,0.411,0.404
252,0.354,0.375,0.393,0.398,0.363,0.346,0.378,0.394,0.396,0.388,0.385
253,0.338,0.357,0.376,0.379,0.346,0.331,0.36,0.376,0.378,0.365,0.368
254,0.321,0.339,0.357,0.359,0.328,0.314,0.342,0.356,0.358,0.342,0.348
255,0.302,0.318,0.336,0.339,0.309,0.295,0.321,0.336,0.337,0.318,0.327
256,0.282,0.297,0.313,0.318,0.288,0.276,0.3,0.313,0.314,0.292,0.306
257,0.263,0.276,0.291,0.296,0.269,0.257,0.28,0.29,0.292,0.264,0.285
258,0.246,0.257,0.272,0.275,0.25,0.24,0.261,0.27,0.272,0.237,0.265
259,0.227,0.238,0.253,0.253,0.231,0.223,0.243,0.25,0.251,0.21,0.245
260,0.21,0.22,0.235,0.234,0.214,0.206,0.226,0.233,0.232,0.192,0.226
261,0.196,0.205,0.22,0.218,0.2,0.192,0.21,0.216,0.216,0.174,0.211
262,0.184,0.193,0.208,0.205,0.189,0.181,0.197,0.201,0.203,0.156,0.198
263,0.174,0.181,0.197,0.192,0.179,0.172,0.186,0.187,0.191,0.138,0.186
264,0.163,0.169,0.185,0.179,0.167,0.161,0.175,0.176,0.179,0.123,0.174
265,0.154,0.16,0.175,0.169,0.157,0.153,0.166,0.167,0.168,0.114,0.164
266,0.149,0.154,0.17,0.164,0.152,0.148,0.16,0.161,0.162,0.108,0.159
267,0.147,0.151,0.167,0.161,0.148,0.145,0.156,0.156,0.159,0.101,0.155
268,0.145,0.147,0.165,0.159,0.147,0.143,0.154,0.154,0.156,0.097,0.153
269,0.145,0.147,0.164,0.158,0.147,0.141,0.154,0.153,0.155,0.098,0.152
270,0.143,0.146,0.163,0.157,0.146,0.14,0.154,0.152,0.154,0.099,0.151
271,0.142,0.145,0.162,0.156,0.145,0.139,0.153,0.15,0.153,0.101,0.149
272,0.141,0.144,0.162,0.155,0.143,0.139,0.152,0.149,0.152,0.1,0.148
273,0.141,0.144,0.163,0.156,0.144,0.14,0.153,0.149,0.153,0.101,0.149
274,0.144,0.146,0.165,0.158,0.147,0.143,0.155,0.151,0.155,0.102,0.152
275,0.146,0.148,0.167,0.16,0.149,0.144,0.157,0.153,0.157,0.103,0.154
276,0.147,0.15,0.168,0.16,0.15,0.145,0.158,0.154,0.157,0.104,0.155
277,0.148,0.15,0.168,0.16,0.151,0.145,0.158,0.155,0.158,0.105,0.154
278,0.147,0.149,0.168,0.16,0.15,0.145,0.157,0.155,0.158,0.107,0.154
279,0.145,0.148,0.166,0.158,0.147,0.143,0.154,0.153,0.156,0.104,0.152
280,0.142,0.144,0.163,0.156,0.145,0.14,0.151,0.149,0.153,0.1,0.149
281,0.139,0.142,0.16,0.152,0.142,0.137,0.149,0.146,0.15,0.096,0.147
282,0.139,0.141,0.159,0.151,0.142,0.136,0.148,0.144,0.149,0.097,0.146
283,0.138,0.141,0.16,0.152,0.142,0.136,0.148,0.145,0.149,0.098,0.146
284,0.139,0.142,0.16,0.153,0.141,0.137,0.149,0.146,0.15,0.098,0.148
285,0.137,0.139,0.158,0.151,0.139,0.135,0.148,0.144,0.148,0.096,0.145
286,0.132,0.135,0.152,0.146,0.134,0.131,0.143,0.14,0.143,0.091,0.14
287,0.126,0.128,0.145,0.138,0.128,0.124,0.135,0.132,0.136,0.085,0.133
288,0.119,0.121,0.137,0.13,0.12,0.117,0.127,0.123,0.128,0.076,0.126
289,0.112,0.114,0.129,0.122,0.112,0.111,0.12,0.116,0.12,0.065,0.118
290,0.105,0.107,0.121,0.115,0.106,0.104,0.113,0.108,0.112,0.055,0.11
291,0.099,0.101,0.114,0.109,0.1,0.098,0.107,0.102,0.106,0.049,0.103
292,0.094,0.095,0.109,0.104,0.095,0.094,0.102,0.096,0.101,0.044,0.099
293,0.09,0.092,0.104,0.1,0.091,0.09,0.097,0.092,0.096,0.04,0.095
294,0.086,0.088,0.099,0.095,0.087,0.086,0.092,0.087,0.092,0.035,0.09
295,0.082,0.084,0.095,0.091,0.083,0.082,0.088,0.083,0.088,0.03,0.086
296,0.078,0.08,0.09,0.087,0.078,0.078,0.083,0.078,0.084,0.027,0.082
297,0.075,0.077,0.086,0.083,0.075,0.076,0.08,0.075,0.08,0.023,0.078
298,0.074,0.076,0.084,0.081,0.073,0.073,0.078,0.073,0.078,0.021,0.076
299,0.073,0.075,0.082,0.08,0.072,0.072,0.078,0.072,0.078,0.02,0.075
300,0.072,0.074,0.081,0.079,0.071,0.071,0.077,0.072,0.077,0.02,0.074
301,0.071,0.073,0.08,0.078,0.07,0.07,0.076,0.072,0.076,0.018,0.074
302,0.071,0.072,0.079,0.078,0.069,0.07,0.075,0.072,0.075,0.018,0.074
303,0.07,0.071,0.077,0.076,0.068,0.069,0.073,0.071,0.074,0.019,0.073
304,0.07,0.07,0.077,0.076,0.067,0.068,0.073,0.07,0.073,0.02,0.072
305,0.069,0.071,0.077,0.076,0.066,0.067,0.072,0.07,0.072,0.021,0.072
306,0.069,0.071,0.077,0.076,0.066,0.067,0.072,0.071,0.073,0.021,0.072
307,0.069,0.073,0.078,0.078,0.067,0.068,0.074,0.074,0.074,0.023,0.073
308,0.07,0.073,0.079,0.078,0.068,0.068,0.074,0.075,0.075,0.025,0.074
309,0.072,0.074,0.08,0.079,0.07,0.07,0.075,0.077,0.077,0.025,0.076
310,0.074,0.077,0.082,0.082,0.073,0.073,0.078,0.079,0.079,0.027,0.078
311,0.076,0.079,0.084,0.084,0.075,0.075,0.08,0.081,0.082,0.032,0.08
312,0.078,0.082,0.088,0.088,0.078,0.078,0.083,0.083,0.085,0.036,0.083
313,0.08,0.085,0.09,0.091,0.08,0.079,0.086,0.087,0.088,0.041,0.086
314,0.083,0.088,0.093,0.094,0.082,0.081,0.088,0.09,0.091,0.046,0.089
315,0.086,0.09,0.096,0.097,0.085,0.084,0.091,0.092,0.094,0.051,0.091
316,0.089,0.094,0.1,0.1,0.089,0.087,0.095,0.096,0.098,0.058,0.096
317,0.093,0.099,0.103,0.105,0.093,0.091,0.1,0.1,0.102,0.062,0.101
318,0.098,0.104,0.107,0.11,0.097,0.095,0.104,0.105,0.107,0.066,0.106
319,0.101,0.107,0.111,0.115,0.101,0.099,0.107,0.109,0.111,0.072,0.11
320,0.105,0.112,0.117,0.12,0.105,0.103,0.112,0.114,0.116,0.078,0.115
321,0.11,0.117,0.123,0.126,0.11,0.108,0.117,0.12,0.121,0.084,0.12
322,0.116,0.123,0.129,0.132,0.115,0.114,0.123,0.126,0.127,0.092,0.125
323,0.12,0.127,0.134,0.137,0.119,0.119,0.127,0.131,0.133,0.1,0.129
324,0.124,0.133,0.139,0.142,0.124,0.124,0.133,0.136,0.14,0.107,0.134
325,0.127,0.138,0.143,0.146,0.129,0.128,0.137,0.142,0.145,0.113,0.14
326,0.133,0.144,0.148,0.152,0.135,0.133,0.143,0.148,0.151,0.118,0.146
327,0.138,0.149,0.154,0.158,0.141,0.138,0.148,0.154,0.157,0.127,0.152
328,0.143,0.154,0.16,0.164,0.145,0.142,0.154,0.16,0.162,0.133,0.158
329,0.149,0.159,0.165,0.171,0.15,0.145,0.159,0.165,0.167,0.141,0.162
330,0.154,0.165,0.171,0.177,0.155,0.15,0.164,0.171,0.174,0.151,0.168
331,0.16,0.172,0.176,0.183,0.161,0.156,0.171,0.177,0.18,0.16,0.174
332,0.163,0.176,0.181,0.188,0.167,0.161,0.176,0.182,0.186,0.166,0.18
333,0.168,0.181,0.187,0.194,0.171,0.165,0.182,0.188,0.191,0.169,0.185
334,0.173,0.186,0.192,0.199,0.175,0.17,0.186,0.195,0.196,0.176,0.19
335,0.18,0.193,0.199,0.206,0.183,0.176,0.192,0.202,0.203,0.187,0.197
336,0.185,0.199,0.205,0.212,0.188,0.182,0.198,0.207,0.209,0.197,0.203
337,0.189,0.204,0.21,0.218,0.193,0.187,0.202,0.211,0.214,0.204,0.208
338,0.193,0.209,0.214,0.223,0.197,0.191,0.208,0.215,0.219,0.207,0.213
339,0.199,0.214,0.219,0.228,0.203,0.196,0.213,0.222,0.226,0.214,0.219
340,0.206,0.22,0.226,0.234,0.209,0.201,0.219,0.228,0.232,0.222,0.225
341,0.211,0.224,0.231,0.239,0.213,0.205,0.224,0.234,0.237,0.227,0.231
342,0.214,0.228,0.235,0.243,0.217,0.209,0.229,0.238,0.242,0.234,0.236
343,0.218,0.234,0.24,0.248,0.222,0.213,0.234,0.243,0.247,0.24,0.24
344,0.221,0.237,0.243,0.252,0.225,0.217,0.237,0.247,0.25,0.246,0.242
345,0.225,0.241,0.248,0.257,0.229,0.22,0.241,0.251,0.255,0.251,0.245
346,0.228,0.244,0.252,0.26,0.233,0.223,0.244,0.254,0.258,0.255,0.249
347,0.232,0.247,0.255,0.264,0.236,0.226,0.247,0.257,0.261,0.259,0.254
348,0.235,0.25,0.257,0.266,0.238,0.228,0.25,0.26,0.265,0.263,0.257
349,0.235,0.252,0.259,0.268,0.239,0.23,0.251,0.263,0.266,0.264,0.259
350,0.237,0.255,0.262,0.27,0.242,0.232,0.254,0.267,0.269,0.267,0.261
351,0.239,0.257,0.264,0.272,0.244,0.234,0.257,0.269,0.271,0.269,0.264
352,0.241,0.259,0.265,0.275,0.247,0.236,0.259,0.27,0.274,0.276,0.266
353,0.242,0.26,0.265,0.276,0.247,0.237,0.26,0.272,0.274,0.277,0.266
354,0.243,0.259,0.267,0.277,0.247,0.238,0.26,0.272,0.275,0.272,0.266
355,0.243,0.259,0.267,0.276,0.247,0.238,0.26,0.271,0.275,0.273,0.266
356,0.243,0.258,0.267,0.276,0.247,0.239,0.26,0.272,0.275,0.276,0.266
357,0.243,0.258,0.267,0.275,0.248,0.239,0.26,0.272,0.276,0.28,0.267
358,0.242,0.257,0.266,0.274,0.247,0.238,0.259,0.271,0.274,0.282,0.266
359,0.241,0.256,0.264,0.273,0.246,0.237,0.258,0.27,0.272,0.281,0.264
360,0.238,0.253,0.26,0.27,0.242,0.234,0.255,0.267,0.269,0.277,0.26
361,0.236,0.251,0.258,0.267,0.239,0.231,0.252,0.265,0.265,0.272,0.257
362,0.233,0.248,0.256,0.263,0.236,0.228,0.249,0.262,0.262,0.266,0.255
363,0.231,0.245,0.254,0.261,0.235,0.226,0.246,0.259,0.259,0.264,0.253
364,0.229,0.242,0.25,0.258,0.233,0.224,0.244,0.255,0.257,0.263,0.25
365,0.225,0.239,0.245,0.254,0.228,0.22,0.239,0.251,0.252,0.259,0.245
366,0.221,0.235,0.241,0.249,0.223,0.216,0.235,0.246,0.246,0.25,0.239
367,0.217,0.229,0.237,0.243,0.219,0.212,0.231,0.241,0.241,0.239,0.234
368,0.211,0.224,0.232,0.238,0.215,0.207,0.227,0.236,0.236,0.232,0.229
369,0.205,0.218,0.224,0.231,0.209,0.201,0.22,0.229,0.231,0.224,0.223
370,0.199,0.211,0.217,0.224,0.202,0.195,0.213,0.222,0.223,0.219,0.217
371,0.194,0.206,0.211,0.218,0.196,0.19,0.206,0.216,0.216,0.216,0.211
372,0.189,0.199,0.206,0.212,0.191,0.185,0.2,0.21,0.21,0.208,0.205
373,0.184,0.193,0.2,0.207,0.185,0.18,0.194,0.204,0.203,0.201,0.199
374,0.178,0.186,0.194,0.2,0.179,0.175,0.187,0.198,0.196,0.192,0.192
375,0.171,0.178,0.186,0.192,0.171,0.168,0.181,0.19,0.188,0.181,0.185
376,0.164,0.172,0.179,0.183,0.164,0.161,0.175,0.183,0.181,0.173,0.177
377,0.158,0.166,0.172,0.177,0.159,0.155,0.169,0.176,0.176,0.163,0.17
378,0.152,0.16,0.165,0.17,0.152,0.149,0.161,0.169,0.168,0.156,0.164
379,0.147,0.152,0.158,0.163,0.146,0.143,0.154,0.161,0.161,0.15,0.157
380,0.14,0.145,0.151,0.155,0.139,0.136,0.147,0.153,0.153,0.142,0.15
381,0.134,0.137,0.143,0.148,0.132,0.13,0.14,0.145,0.145,0.133,0.143
382,0.127,0.13,0.136,0.14,0.125,0.123,0.134,0.137,0.137,0.123,0.135
383,0.12,0.124,0.129,0.132,0.118,0.117,0.127,0.13,0.129,0.115,0.128
384,0.113,0.117,0.122,0.124,0.11,0.11,0.119,0.123,0.121,0.105,0.119
385,0.105,0.108,0.113,0.115,0.102,0.102,0.11,0.114,0.112,0.09,0.111
386,0.098,0.1,0.106,0.108,0.095,0.096,0.102,0.105,0.104,0.078,0.104
387,0.092,0.092,0.099,0.1,0.089,0.089,0.096,0.098,0.096,0.071,0.097
388,0.086,0.086,0.093,0.093,0.083,0.083,0.09,0.091,0.089,0.064,0.091
389,0.08,0.081,0.086,0.086,0.077,0.077,0.084,0.085,0.083,0.056,0.083
390,0.071,0.074,0.078,0.077,0.068,0.069,0.074,0.077,0.074,0.042,0.074
391,0.064,0.066,0.07,0.069,0.06,0.062,0.066,0.07,0.066,0.031,0.066
392,0.057,0.057,0.062,0.061,0.054,0.056,0.06,0.062,0.059,0.024,0.059
393,0.051,0.05,0.056,0.055,0.048,0.05,0.054,0.055,0.052,0.018,0.052
394,0.046,0.046,0.05,0.049,0.043,0.045,0.049,0.05,0.046,0.01,0.047
395,0.042,0.04,0.045,0.044,0.038,0.04,0.043,0.044,0.04,0.002,0.041
396,0.037,0.036,0.04,0.039,0.033,0.036,0.038,0.038,0.035,-0.002,0.036
397,0.033,0.031,0.036,0.034,0.029,0.033,0.033,0.033,0.031,-0.008,0.033
398,0.03,0.027,0.031,0.03,0.024,0.029,0.029,0.029,0.027,-0.015,0.029
399,0.025,0.023,0.027,0.025,0.021,0.025,0.026,0.026,0.023,-0.022,0.025
400,0.023,0.021,0.024,0.023,0.018,0.022,0.023,0.022,0.019,-0.026,0.021
401,0.019,0.018,0.021,0.02,0.016,0.019,0.019,0.019,0.016,-0.027,0.018
402,0.018,0.017,0.02,0.019,0.015,0.018,0.018,0.018,0.015,-0.029,0.017
403,0.017,0.015,0.018,0.017,0.014,0.016,0.017,0.016,0.013,-0.032,0.016
404,0.015,0.013,0.016,0.014,0.011,0.014,0.015,0.014,0.012,-0.034,0.013
405,0.013,0.011,0.014,0.013,0.008,0.011,0.012,0.011,0.009,-0.037,0.01
406,0.011,0.009,0.012,0.01,0.005,0.009,0.009,0.008,0.006,-0.039,0.007
407,0.011,0.007,0.011,0.009,0.004,0.009,0.009,0.009,0.005,-0.042,0.007
408,0.009,0.007,0.01,0.008,0.004,0.009,0.008,0.009,0.005,-0.045,0.007
409,0.009,0.007,0.01,0.009,0.005,0.009,0.009,0.009,0.006,-0.047,0.008
410,0.01,0.008,0.01,0.011,0.006,0.01,0.01,0.008,0.006,-0.045,0.008
411,0.009,0.007,0.009,0.01,0.005,0.009,0.009,0.007,0.005,-0.043,0.007
412,0.008,0.005,0.008,0.008,0.003,0.007,0.007,0.005,0.004,-0.042,0.005
413,0.007,0.004,0.007,0.005,0.001,0.006,0.005,0.003,0.003,-0.043,0.004
414,0.006,0.004,0.007,0.005,0.001,0.005,0.006,0.004,0.002,-0.042,0.004
415,0.006,0.005,0.007,0.005,0.001,0.006,0.006,0.004,0.001,-0.041,0.004
416,0.006,0.005,0.007,0.005,0.0,0.005,0.004,0.005,0.001,-0.043,0.003
417,0.006,0.005,0.006,0.005,0.0,0.006,0.005,0.005,0.002,-0.042,0.003
418,0.007,0.005,0.006,0.005,0.0,0.006,0.005,0.006,0.002,-0.042,0.003
419,0.007,0.005,0.007,0.006,0.001,0.006,0.005,0.007,0.003,-0.044,0.004
420,0.008,0.005,0.008,0.006,0.002,0.007,0.006,0.006,0.002,-0.048,0.004
421,0.007,0.004,0.007,0.006,0.002,0.006,0.005,0.003,0.001,-0.052,0.003
422,0.005,0.004,0.006,0.005,0.001,0.005,0.004,0.002,0.001,-0.051,0.003
423,0.004,0.004,0.006,0.004,0.001,0.005,0.003,0.002,0.001,-0.049,0.003
424,0.005,0.004,0.007,0.004,0.001,0.005,0.004,0.002,0.001,-0.047,0.002
425,0.007,0.006,0.008,0.005,0.003,0.006,0.006,0.003,0.003,-0.043,0.004
426,0.008,0.007,0.009,0.007,0.004,0.007,0.007,0.004,0.004,-0.041,0.006
427,0.009,0.008,0.01,0.01,0.004,0.009,0.008,0.005,0.005,-0.04,0.008
428,0.008,0.007,0.01,0.009,0.003,0.008,0.007,0.006,0.005,-0.04,0.006
429,0.007,0.006,0.01,0.007,0.002,0.008,0.007,0.006,0.004,-0.04,0.005
430,0.007,0.004,0.009,0.006,0.002,0.007,0.007,0.005,0.004,-0.043,0.005
431,0.006,0.004,0.008,0.005,0.002,0.007,0.006,0.005,0.003,-0.044,0.005
432,0.007,0.005,0.007,0.006,0.003,0.007,0.006,0.004,0.003,-0.043,0.004
433,0.008,0.006,0.009,0.006,0.003,0.007,0.007,0.004,0.003,-0.039,0.004
434,0.009,0.006,0.01,0.007,0.003,0.008,0.007,0.005,0.004,-0.038,0.005
435,0.009,0.006,0.01,0.007,0.003,0.009,0.008,0.006,0.005,-0.039,0.007
436,0.008,0.006,0.009,0.007,0.003,0.009,0.007,0.005,0.005,-0.04,0.007
437,0.008,0.006,0.009,0.008,0.003,0.009,0.008,0.005,0.005,-0.039,0.006
438,0.008,0.006,0.009,0.008,0.003,0.008,0.008,0.004,0.004,-0.039,0.005
439,0.007,0.006,0.009,0.007,0.003,0.008,0.007,0.005,0.003,-0.043,0.005
440,0.008,0.006,0.01,0.007,0.004,0.008,0.007,0.005,0.003,-0.044,0.005
441,0.009,0.006,0.009,0.007,0.003,0.009,0.007,0.005,0.003,-0.043,0.005
442,0.01,0.007,0.009,0.007,0.003,0.009,0.008,0.005,0.004,-0.04,0.006
443,0.009,0.007,0.01,0.008,0.003,0.01,0.008,0.005,0.005,-0.037,0.006
444,0.009,0.007,0.01,0.008,0.004,0.009,0.007,0.005,0.005,-0.036,0.007
445,0.009,0.007,0.011,0.009,0.005,0.009,0.007,0.005,0.005,-0.034,0.008
446,0.01,0.008,0.011,0.01,0.006,0.01,0.009,0.004,0.005,-0.031,0.008
447,0.011,0.009,0.012,0.01,0.006,0.011,0.011,0.005,0.007,-0.03,0.009
448,0.012,0.009,0.012,0.011,0.007,0.012,0.011,0.004,0.008,-0.033,0.009
449,0.011,0.009,0.012,0.01,0.006,0.011,0.01,0.004,0.007,-0.035,0.009
450,0.01,0.01,0.012,0.009,0.007,0.011,0.01,0.002,0.007,-0.037,0.008
451,0.01,0.01,0.013,0.01,0.007,0.011,0.01,0.003,0.007,-0.037,0.008
452,0.011,0.01,0.012,0.01,0.006,0.011,0.009,0.003,0.007,-0.039,0.008
453,0.011,0.009,0.012,0.01,0.006,0.01,0.009,0.002,0.006,-0.039,0.008
454,0.012,0.01,0.013,0.011,0.007,0.011,0.011,0.002,0.006,-0.037,0.009
455,0.011,0.009,0.013,0.01,0.007,0.01,0.011,0.001,0.006,-0.037,0.009
456,0.011,0.009,0.012,0.01,0.007,0.012,0.011,0.002,0.007,-0.034,0.01
457,0.01,0.008,0.011,0.009,0.006,0.011,0.01,0.001,0.006,-0.035,0.009
458,0.01,0.008,0.012,0.009,0.006,0.011,0.01,0.003,0.007,-0.033,0.008
459,0.012,0.009,0.013,0.01,0.007,0.011,0.01,0.005,0.007,-0.034,0.009
460,0.012,0.011,0.014,0.011,0.007,0.012,0.011,0.006,0.008,-0.035,0.01
461,0.014,0.013,0.015,0.013,0.009,0.014,0.012,0.006,0.01,-0.034,0.011
462,0.013,0.012,0.014,0.012,0.007,0.014,0.011,0.004,0.008,-0.034,0.011
463,0.013,0.011,0.014,0.012,0.007,0.013,0.011,0.002,0.008,-0.029,0.01
464,0.013,0.009,0.014,0.012,0.007,0.013,0.012,0.001,0.009,-0.027,0.01
465,0.012,0.009,0.014,0.012,0.007,0.012,0.012,0.001,0.009,-0.029,0.009
466,0.013,0.01,0.015,0.013,0.009,0.013,0.013,0.002,0.009,-0.034,0.01
467,0.014,0.012,0.015,0.014,0.01,0.014,0.013,0.004,0.009,-0.032,0.011
468,0.015,0.013,0.016,0.015,0.011,0.015,0.015,0.004,0.011,-0.026,0.013
469,0.016,0.014,0.017,0.016,0.011,0.017,0.016,0.003,0.012,-0.024,0.014
470,0.015,0.013,0.017,0.014,0.009,0.015,0.014,0.0,0.011,-0.028,0.013
471,0.015,0.013,0.016,0.013,0.01,0.015,0.014,-0.001,0.011,-0.029,0.013
472,0.014,0.012,0.016,0.013,0.01,0.015,0.013,0.0,0.01,-0.025,0.012
473,0.015,0.013,0.016,0.014,0.011,0.015,0.013,0.001,0.011,-0.025,0.012
474,0.016,0.013,0.017,0.014,0.011,0.015,0.013,0.001,0.011,-0.027,0.012
475,0.014,0.012,0.016,0.013,0.009,0.014,0.013,0.0,0.01,-0.027,0.012
476,0.014,0.012,0.015,0.013,0.009,0.014,0.012,0.0,0.01,-0.022,0.012
477,0.015,0.013,0.017,0.015,0.011,0.016,0.014,0.001,0.011,-0.016,0.012
478,0.017,0.014,0.018,0.016,0.012,0.018,0.015,0.002,0.013,-0.016,0.013
479,0.017,0.014,0.018,0.016,0.012,0.018,0.016,0.003,0.013,-0.017,0.014
480,0.017,0.014,0.017,0.015,0.012,0.017,0.015,0.002,0.012,-0.019,0.015
481,0.016,0.014,0.017,0.015,0.012,0.016,0.015,0.002,0.012,-0.02,0.015
482,0.016,0.013,0.017,0.015,0.012,0.016,0.015,0.002,0.012,-0.023,0.014
483,0.014,0.012,0.016,0.013,0.01,0.014,0.014,0.001,0.011,-0.023,0.013
484,0.015,0.012,0.016,0.013,0.009,0.015,0.014,0.001,0.011,-0.018,0.013
485,0.017,0.015,0.019,0.016,0.012,0.018,0.016,0.0,0.013,-0.012,0.015
486,0.019,0.017,0.021,0.018,0.014,0.019,0.018,-0.001,0.015,-0.013,0.017
487,0.019,0.017,0.021,0.018,0.014,0.019,0.018,-0.003,0.015,-0.017,0.017
488,0.019,0.017,0.02,0.017,0.014,0.019,0.018,-0.003,0.014,-0.019,0.016
489,0.02,0.018,0.021,0.018,0.016,0.02,0.019,-0.003,0.015,-0.017,0.017
490,0.021,0.018,0.022,0.019,0.016,0.021,0.019,-0.004,0.016,-0.014,0.017
491,0.02,0.018,0.021,0.018,0.015,0.02,0.018,-0.004,0.014,-0.015,0.016
492,0.019,0.017,0.02,0.017,0.014,0.019,0.017,-0.005,0.014,-0.016,0.015
493,0.02,0.017,0.021,0.017,0.014,0.02,0.018,-0.005,0.014,-0.015,0.016
494,0.022,0.019,0.024,0.02,0.016,0.022,0.02,-0.003,0.017,-0.01,0.019
495,0.022,0.019,0.024,0.02,0.016,0.022,0.02,-0.001,0.017,-0.006,0.019
496,0.021,0.018,0.023,0.019,0.015,0.021,0.02,0.0,0.016,-0.004,0.018
497,0.02,0.018,0.022,0.018,0.015,0.02,0.018,0.0,0.015,-0.006,0.017
498,0.019,0.018,0.023,0.019,0.016,0.02,0.018,0.0,0.015,-0.008,0.017
499,0.021,0.02,0.024,0.021,0.017,0.022,0.02,0.002,0.018,-0.004,0.02
500,0.023,0.021,0.024,0.021,0.017,0.022,0.02,0.002,0.019,-0.001,0.02
501,0.022,0.02,0.023,0.021,0.018,0.022,0.02,-0.001,0.018,-0.001,0.019
502,0.021,0.018,0.023,0.02,0.017,0.021,0.019,-0.003,0.016,-0.004,0.019
503,0.021,0.018,0.023,0.02,0.016,0.02,0.019,-0.003,0.016,-0.007,0.019
504,0.024,0.02,0.025,0.021,0.018,0.022,0.022,-0.001,0.018,-0.004,0.02
505,0.024,0.022,0.026,0.023,0.019,0.024,0.023,0.0,0.02,0.001,0.02
506,0.023,0.021,0.026,0.023,0.019,0.024,0.022,0.0,0.02,0.002,0.021
507,0.021,0.02,0.024,0.021,0.018,0.023,0.021,-0.002,0.017,-0.003,0.019
508,0.021,0.018,0.023,0.02,0.017,0.022,0.019,-0.003,0.017,-0.007,0.018
509,0.021,0.019,0.023,0.021,0.018,0.023,0.02,-0.002,0.017,-0.006,0.019
510,0.021,0.019,0.024,0.021,0.017,0.023,0.02,-0.001,0.018,-0.002,0.019
511,0.021,0.02,0.024,0.021,0.017,0.023,0.02,-0.001,0.017,0.0,0.018
512,0.022,0.021,0.024,0.021,0.018,0.023,0.021,-0.002,0.018,0.001,0.019
513,0.022,0.021,0.024,0.02,0.017,0.022,0.02,-0.003,0.018,0.0,0.018
514,0.021,0.02,0.024,0.019,0.017,0.022,0.019,-0.002,0.018,0.0,0.018
515,0.021,0.02,0.024,0.019,0.016,0.021,0.019,-0.001,0.017,-0.003,0.018
516,0.022,0.02,0.025,0.02,0.018,0.023,0.021,0.0,0.018,-0.005,0.02
517,0.022,0.021,0.025,0.021,0.018,0.024,0.022,0.0,0.019,-0.003,0.02
518,0.022,0.021,0.025,0.021,0.018,0.023,0.021,0.0,0.019,0.001,0.02
519,0.023,0.021,0.024,0.022,0.018,0.022,0.022,0.0,0.02,0.002,0.021
520,0.023,0.021,0.024,0.021,0.018,0.022,0.022,-0.001,0.02,0.001,0.021
521,0.023,0.021,0.025,0.022,0.018,0.023,0.022,-0.001,0.019,0.003,0.021
522,0.023,0.02,0.024,0.021,0.017,0.023,0.021,-0.002,0.018,0.003,0.019
523,0.021,0.019,0.023,0.021,0.016,0.022,0.02,-0.001,0.017,0.002,0.018
524,0.021,0.018,0.022,0.02,0.016,0.021,0.019,-0.002,0.017,0.0,0.018
525,0.02,0.018,0.022,0.02,0.016,0.021,0.019,-0.002,0.017,-0.001,0.018
526,0.02,0.019,0.023,0.02,0.016,0.022,0.019,-0.003,0.017,0.0,0.018
527,0.021,0.02,0.023,0.021,0.016,0.022,0.019,-0.002,0.017,-0.001,0.019
528,0.021,0.02,0.023,0.02,0.016,0.021,0.019,-0.001,0.017,-0.004,0.019
529,0.021,0.019,0.022,0.019,0.015,0.021,0.019,-0.002,0.016,-0.006,0.018
530,0.021,0.019,0.022,0.018,0.015,0.021,0.019,-0.004,0.016,-0.003,0.018
531,0.022,0.019,0.023,0.019,0.016,0.022,0.019,-0.005,0.016,0.002,0.018
532,0.022,0.02,0.024,0.021,0.017,0.023,0.02,-0.003,0.017,0.003,0.02
533,0.021,0.02,0.024,0.02,0.017,0.022,0.02,-0.002,0.018,0.003,0.019
534,0.02,0.019,0.023,0.019,0.016,0.021,0.02,-0.002,0.017,0.005,0.018
535,0.021,0.019,0.022,0.019,0.015,0.021,0.019,-0.002,0.016,0.001,0.017
536,0.021,0.019,0.023,0.019,0.016,0.021,0.019,-0.001,0.016,-0.006,0.018
537,0.02,0.019,0.022,0.018,0.015,0.02,0.018,0.0,0.016,-0.014,0.017
538,0.02,0.019,0.023,0.019,0.016,0.02,0.018,0.0,0.017,-0.013,0.018
539,0.019,0.018,0.022,0.02,0.016,0.02,0.019,-0.001,0.017,-0.008,0.018
540,0.019,0.018,0.022,0.02,0.017,0.02,0.02,0.0,0.016,-0.004,0.018
541,0.02,0.019,0.021,0.019,0.017,0.02,0.02,0.001,0.015,-0.004,0.017
542,0.02,0.018,0.021,0.018,0.016,0.02,0.019,0.001,0.015,-0.004,0.017
543,0.02,0.018,0.021,0.019,0.016,0.021,0.018,0.001,0.016,-0.002,0.018
544,0.02,0.018,0.021,0.019,0.014,0.02,0.018,0.0,0.016,-0.001,0.017
545,0.02,0.019,0.022,0.02,0.015,0.021,0.018,0.0,0.016,0.0,0.017
546,0.018,0.017,0.021,0.018,0.014,0.019,0.017,0.001,0.014,-0.002,0.016
547,0.017,0.015,0.019,0.016,0.012,0.017,0.015,0.001,0.013,-0.006,0.014
548,0.017,0.013,0.018,0.016,0.011,0.016,0.015,0.002,0.012,-0.008,0.014
549,0.018,0.014,0.018,0.017,0.012,0.017,0.016,0.002,0.013,-0.008,0.016
550,0.017,0.014,0.018,0.016,0.011,0.017,0.015,0.002,0.013,-0.005,0.015
551,0.017,0.014,0.017,0.016,0.011,0.017,0.013,0.002,0.013,-0.005,0.014
552,0.016,0.015,0.017,0.016,0.011,0.016,0.015,0.002,0.013,-0.006,0.013
553,0.017,0.016,0.019,0.017,0.012,0.017,0.016,0.003,0.014,-0.009,0.015
554,0.017,0.015,0.019,0.018,0.012,0.017,0.016,0.002,0.014,-0.009,0.016
555,0.017,0.015,0.018,0.017,0.012,0.017,0.015,0.001,0.013,-0.007,0.016
556,0.016,0.014,0.017,0.015,0.012,0.016,0.014,-0.001,0.012,-0.005,0.014
557,0.015,0.014,0.017,0.015,0.01,0.016,0.014,-0.003,0.01,-0.005,0.013
558,0.015,0.014,0.017,0.016,0.01,0.016,0.015,-0.002,0.01,-0.008,0.013
559,0.016,0.014,0.018,0.016,0.011,0.017,0.016,0.002,0.012,-0.009,0.014
560,0.016,0.014,0.018,0.016,0.012,0.017,0.015,0.004,0.013,-0.007,0.014
561,0.014,0.013,0.017,0.015,0.011,0.016,0.014,0.003,0.012,-0.012,0.012
562,0.011,0.01,0.013,0.011,0.007,0.013,0.01,0.0,0.008,-0.015,0.008
563,0.01,0.008,0.011,0.009,0.005,0.011,0.009,-0.002,0.006,-0.018,0.008
564,0.011,0.008,0.011,0.009,0.005,0.011,0.009,0.0,0.006,-0.015,0.008
565,0.012,0.01,0.013,0.011,0.007,0.012,0.011,0.004,0.008,-0.013,0.01
566,0.013,0.012,0.014,0.012,0.008,0.012,0.011,0.006,0.009,-0.005,0.011
567,0.012,0.011,0.013,0.011,0.007,0.011,0.01,0.004,0.008,0.0,0.01
568,0.01,0.009,0.011,0.008,0.006,0.009,0.008,0.001,0.006,0.001,0.008
569,0.01,0.009,0.012,0.009,0.006,0.01,0.008,0.002,0.006,-0.002,0.008
570,0.012,0.01,0.013,0.01,0.007,0.012,0.009,0.005,0.008,-0.006,0.01
571,0.013,0.011,0.014,0.012,0.008,0.012,0.01,0.007,0.009,-0.013,0.011
572,0.013,0.012,0.015,0.013,0.007,0.014,0.01,0.006,0.009,-0.015,0.01
573,0.012,0.01,0.013,0.012,0.006,0.012,0.01,0.003,0.007,-0.013,0.009
574,0.011,0.01,0.013,0.01,0.006,0.011,0.01,0.002,0.006,-0.008,0.009
575,0.012,0.01,0.013,0.011,0.007,0.012,0.011,0.003,0.007,-0.006,0.011
576,0.014,0.011,0.014,0.013,0.009,0.014,0.012,0.006,0.01,-0.004,0.013
577,0.013,0.012,0.014,0.013,0.008,0.013,0.012,0.006,0.01,-0.005,0.011
578,0.012,0.011,0.014,0.011,0.008,0.011,0.011,0.006,0.009,-0.007,0.01
579,0.012,0.011,0.013,0.011,0.008,0.011,0.011,0.006,0.007,-0.009,0.009
580,0.012,0.011,0.013,0.011,0.007,0.012,0.011,0.007,0.006,-0.012,0.009
581,0.011,0.009,0.011,0.01,0.005,0.011,0.009,0.005,0.005,-0.017,0.007
582,0.009,0.007,0.009,0.009,0.003,0.009,0.009,0.004,0.004,-0.025,0.006
583,0.008,0.008,0.009,0.008,0.003,0.009,0.008,0.002,0.005,-0.024,0.006
584,0.009,0.007,0.009,0.008,0.003,0.01,0.008,0.003,0.004,-0.017,0.006
585,0.007,0.005,0.008,0.006,0.001,0.008,0.007,0.002,0.002,-0.015,0.004
586,0.008,0.006,0.009,0.007,0.002,0.008,0.007,0.003,0.003,-0.018,0.005
587,0.008,0.008,0.009,0.007,0.002,0.008,0.007,0.002,0.004,-0.023,0.005
588,0.01,0.01,0.011,0.01,0.006,0.01,0.009,0.004,0.006,-0.016,0.009
589,0.01,0.008,0.011,0.01,0.006,0.01,0.009,0.005,0.007,-0.014,0.008
590,0.009,0.007,0.01,0.009,0.005,0.009,0.008,0.006,0.006,-0.01,0.008
591,0.007,0.007,0.009,0.008,0.002,0.007,0.007,0.003,0.004,-0.009,0.006
592,0.007,0.006,0.007,0.006,0.001,0.006,0.006,0.001,0.003,-0.007,0.005
593,0.008,0.007,0.008,0.007,0.003,0.008,0.007,0.002,0.005,-0.017,0.006
594,0.009,0.008,0.01,0.008,0.005,0.01,0.009,0.006,0.005,-0.024,0.007
595,0.01,0.008,0.011,0.009,0.005,0.011,0.009,0.009,0.006,-0.023,0.007
596,0.009,0.007,0.011,0.009,0.003,0.01,0.009,0.007,0.006,-0.02,0.007
597,0.009,0.007,0.01,0.008,0.002,0.009,0.008,0.006,0.004,-0.018,0.006
598,0.009,0.007,0.009,0.007,0.003,0.009,0.008,0.007,0.004,-0.016,0.005
599,0.009,0.006,0.008,0.008,0.003,0.009,0.008,0.007,0.004,-0.014,0.006
600,0.008,0.005,0.008,0.008,0.002,0.007,0.006,0.005,0.003,-0.017,0.005
601,0.008,0.005,0.008,0.009,0.001,0.007,0.006,0.006,0.003,-0.024,0.005
602,0.007,0.005,0.008,0.008,0.001,0.008,0.006,0.007,0.003,-0.028,0.005
603,0.007,0.005,0.007,0.007,0.001,0.008,0.006,0.008,0.002,-0.024,0.004
604,0.006,0.004,0.007,0.005,0.001,0.007,0.005,0.009,0.001,-0.02,0.003
605,0.006,0.004,0.007,0.004,0.0,0.006,0.005,0.009,0.001,-0.018,0.004
606,0.005,0.004,0.006,0.003,-0.001,0.005,0.005,0.006,0.0,-0.016,0.003
607,0.006,0.004,0.006,0.005,0.001,0.006,0.005,0.006,0.001,-0.017,0.003
608,0.007,0.005,0.008,0.007,0.002,0.006,0.006,0.004,0.003,-0.021,0.004
609,0.008,0.006,0.009,0.008,0.002,0.007,0.006,0.005,0.004,-0.023,0.005
610,0.006,0.004,0.008,0.005,0.001,0.007,0.005,0.006,0.002,-0.024,0.005
611,0.006,0.003,0.007,0.004,0.002,0.006,0.005,0.008,0.002,-0.024,0.004
612,0.008,0.005,0.008,0.005,0.002,0.007,0.005,0.01,0.003,-0.023,0.006
613,0.008,0.007,0.009,0.008,0.002,0.008,0.006,0.008,0.004,-0.019,0.006
614,0.007,0.006,0.008,0.007,0.001,0.007,0.004,0.006,0.003,-0.018,0.005
615,0.004,0.005,0.007,0.005,0.0,0.005,0.003,0.005,0.001,-0.02,0.002
616,0.005,0.004,0.007,0.004,0.0,0.004,0.003,0.006,0.001,-0.018,0.001
617,0.007,0.005,0.007,0.006,0.001,0.005,0.006,0.01,0.002,-0.013,0.004
618,0.008,0.005,0.008,0.008,0.002,0.006,0.007,0.013,0.005,-0.009,0.007
619,0.009,0.006,0.01,0.009,0.004,0.008,0.008,0.013,0.006,-0.012,0.009
620,0.007,0.006,0.008,0.006,0.002,0.008,0.006,0.009,0.003,-0.019,0.007
621,0.004,0.003,0.006,0.004,-0.001,0.005,0.003,0.005,0.0,-0.027,0.003
622,0.003,0.002,0.005,0.003,-0.001,0.004,0.002,0.006,-0.001,-0.033,0.002
623,0.004,0.002,0.005,0.003,-0.001,0.004,0.002,0.007,0.0,-0.031,0.002
624,0.005,0.003,0.006,0.004,-0.001,0.005,0.004,0.009,0.001,-0.027,0.003
625,0.005,0.004,0.006,0.005,0.0,0.005,0.005,0.01,0.001,-0.027,0.003
626,0.006,0.005,0.008,0.006,0.002,0.006,0.006,0.011,0.003,-0.027,0.004
627,0.006,0.007,0.007,0.007,0.002,0.006,0.005,0.01,0.003,-0.02,0.004
628,0.005,0.007,0.007,0.006,0.001,0.006,0.005,0.01,0.002,-0.015,0.004
629,0.004,0.005,0.006,0.005,0.001,0.006,0.005,0.008,0.001,-0.014,0.003
630,0.006,0.006,0.007,0.006,0.002,0.008,0.006,0.01,0.002,-0.013,0.006
631,0.007,0.007,0.007,0.007,0.003,0.007,0.007,0.011,0.002,-0.009,0.006
632,0.008,0.006,0.007,0.008,0.003,0.006,0.007,0.009,0.002,-0.006,0.005
633,0.007,0.005,0.007,0.007,0.001,0.005,0.006,0.008,0.001,-0.011,0.003
634,0.006,0.004,0.007,0.005,0.0,0.005,0.005,0.007,0.001,-0.017,0.003
635,0.005,0.003,0.006,0.005,0.0,0.005,0.005,0.007,0.001,-0.018,0.003
636,0.006,0.004,0.007,0.007,0.001,0.007,0.007,0.008,0.002,-0.014,0.004
637,0.008,0.006,0.008,0.008,0.002,0.008,0.007,0.01,0.004,-0.014,0.005
638,0.008,0.006,0.008,0.008,0.004,0.007,0.007,0.01,0.003,-0.019,0.006
639,0.008,0.006,0.007,0.005,0.003,0.007,0.007,0.01,0.003,-0.021,0.007
640,0.009,0.007,0.007,0.006,0.003,0.008,0.008,0.012,0.003,-0.019,0.007
641,0.009,0.007,0.008,0.006,0.004,0.009,0.009,0.012,0.004,-0.02,0.007
642,0.007,0.005,0.008,0.006,0.001,0.008,0.007,0.009,0.003,-0.022,0.004
643,0.007,0.003,0.006,0.004,-0.001,0.006,0.005,0.007,0.002,-0.019,0.004
644,0.007,0.002,0.005,0.003,-0.001,0.005,0.004,0.006,0.002,-0.021,0.004
645,0.006,0.003,0.005,0.005,0.0,0.006,0.005,0.005,0.003,-0.022,0.005
646,0.006,0.006,0.007,0.007,0.001,0.008,0.007,0.008,0.003,-0.021,0.006
647,0.006,0.007,0.008,0.008,0.001,0.008,0.007,0.009,0.002,-0.016,0.005
648,0.007,0.006,0.009,0.008,0.001,0.008,0.006,0.009,0.002,-0.013,0.004
649,0.006,0.006,0.007,0.008,0.002,0.007,0.005,0.007,0.002,-0.012,0.003
650,0.006,0.007,0.008,0.008,0.002,0.007,0.005,0.008,0.003,-0.017,0.005
651,0.007,0.007,0.007,0.007,0.001,0.006,0.006,0.008,0.003,-0.022,0.005
652,0.007,0.005,0.008,0.007,0.0,0.008,0.007,0.008,0.004,-0.02,0.005
653,0.007,0.005,0.009,0.008,0.002,0.008,0.007,0.008,0.005,-0.017,0.006
654,0.009,0.007,0.011,0.009,0.004,0.009,0.008,0.009,0.005,-0.014,0.007
655,0.008,0.006,0.009,0.008,0.003,0.008,0.008,0.008,0.003,-0.01,0.006
656,0.007,0.005,0.008,0.007,0.002,0.007,0.007,0.008,0.003,-0.007,0.004
657,0.005,0.005,0.008,0.007,0.0,0.006,0.005,0.008,0.003,-0.005,0.003
658,0.005,0.005,0.007,0.007,0.0,0.006,0.005,0.007,0.001,-0.004,0.002
659,0.005,0.005,0.006,0.007,0.001,0.007,0.006,0.006,0.001,-0.005,0.004
660,0.007,0.005,0.007,0.006,0.002,0.008,0.008,0.006,0.002,-0.004,0.005
661,0.008,0.006,0.008,0.007,0.001,0.008,0.008,0.005,0.003,-0.001,0.006
662,0.006,0.005,0.008,0.005,0.0,0.007,0.006,0.004,0.002,-0.003,0.005
663,0.007,0.006,0.008,0.007,0.001,0.007,0.006,0.002,0.003,-0.004,0.006
664,0.007,0.005,0.007,0.005,0.001,0.007,0.005,0.001,0.004,-0.001,0.005
665,0.006,0.003,0.006,0.005,0.002,0.006,0.004,0.0,0.003,0.006,0.005
666,0.006,0.003,0.006,0.006,0.002,0.006,0.005,0.003,0.003,0.0,0.005
667,0.009,0.006,0.008,0.009,0.005,0.009,0.008,0.007,0.005,-0.006,0.007
668,0.01,0.007,0.009,0.011,0.005,0.01,0.009,0.006,0.005,-0.018,0.006
669,0.007,0.007,0.008,0.009,0.003,0.008,0.008,0.004,0.003,-0.019,0.005
670,0.005,0.005,0.007,0.006,0.0,0.005,0.006,0.001,0.001,-0.015,0.003
671,0.007,0.006,0.009,0.006,0.002,0.006,0.006,0.002,0.002,-0.009,0.005
672,0.01,0.008,0.011,0.008,0.003,0.008,0.008,0.003,0.005,-0.002,0.006
673,0.01,0.009,0.012,0.009,0.004,0.009,0.009,0.005,0.005,0.003,0.006
674,0.008,0.008,0.008,0.008,0.002,0.008,0.008,0.003,0.004,0.003,0.004
675,0.007,0.006,0.007,0.007,0.002,0.007,0.007,0.003,0.003,-0.004,0.005
676,0.008,0.007,0.009,0.007,0.004,0.009,0.008,0.006,0.006,-0.012,0.007
677,0.008,0.009,0.01,0.009,0.005,0.011,0.01,0.009,0.007,-0.017,0.007
678,0.007,0.008,0.008,0.008,0.003,0.008,0.007,0.006,0.005,-0.015,0.006
679,0.005,0.006,0.007,0.005,0.001,0.006,0.004,0.003,0.003,-0.015,0.005
680,0.005,0.006,0.008,0.005,0.002,0.006,0.003,0.003,0.003,-0.02,0.006
681,0.008,0.007,0.01,0.009,0.005,0.009,0.007,0.006,0.005,-0.018,0.009
682,0.009,0.006,0.01,0.009,0.004,0.008,0.008,0.004,0.004,-0.012,0.007
683,0.009,0.006,0.01,0.009,0.004,0.007,0.008,0.002,0.005,-0.006,0.006
684,0.011,0.009,0.012,0.011,0.006,0.011,0.01,0.002,0.007,-0.003,0.007
685,0.014,0.012,0.016,0.013,0.01,0.016,0.014,0.003,0.01,-0.001,0.012
686,0.014,0.013,0.017,0.014,0.009,0.017,0.015,0.006,0.01,-0.004,0.013
687,0.012,0.012,0.015,0.012,0.007,0.014,0.013,0.007,0.008,-0.005,0.011
688,0.009,0.009,0.011,0.01,0.003,0.011,0.008,0.004,0.005,-0.009,0.007
689,0.01,0.008,0.01,0.009,0.003,0.01,0.008,0.002,0.004,-0.006,0.007
690,0.009,0.007,0.009,0.008,0.004,0.01,0.008,0.002,0.004,-0.009,0.007
691,0.01,0.007,0.009,0.008,0.004,0.008,0.008,0.003,0.004,-0.013,0.007
692,0.008,0.006,0.008,0.007,0.002,0.008,0.007,0.0,0.002,-0.012,0.004
693,0.008,0.006,0.009,0.007,0.003,0.008,0.008,-0.001,0.002,-0.008,0.004
694,0.008,0.007,0.01,0.009,0.004,0.009,0.009,0.001,0.004,-0.005,0.004
695,0.01,0.007,0.011,0.009,0.004,0.009,0.008,0.004,0.005,-0.01,0.006
696,0.011,0.008,0.012,0.011,0.005,0.011,0.01,0.006,0.006,-0.016,0.008
697,0.012,0.01,0.012,0.012,0.007,0.013,0.012,0.007,0.008,-0.022,0.009
698,0.01,0.009,0.01,0.009,0.006,0.012,0.01,0.007,0.006,-0.023,0.008
699,0.006,0.006,0.007,0.005,0.001,0.008,0.006,0.006,0.003,-0.02,0.004
700,0.005,0.006,0.007,0.005,0.0,0.007,0.006,0.006,0.002,-0.013,0.004
701,0.008,0.009,0.01,0.008,0.004,0.01,0.008,0.006,0.005,-0.008,0.006
702,0.009,0.01,0.012,0.008,0.005,0.009,0.009,0.004,0.005,-0.011,0.006
703,0.006,0.007,0.01,0.006,0.003,0.005,0.005,0.002,0.003,-0.016,0.004
704,0.005,0.006,0.008,0.005,0.0,0.005,0.004,0.002,0.001,-0.015,0.004
705,0.005,0.005,0.007,0.005,-0.001,0.006,0.003,0.003,0.001,-0.02,0.005
706,0.006,0.006,0.006,0.005,0.001,0.006,0.003,0.002,0.002,-0.014,0.006
707,0.007,0.007,0.007,0.005,0.003,0.007,0.006,0.004,0.005,-0.003,0.006
708,0.01,0.009,0.009,0.007,0.005,0.01,0.009,0.004,0.006,0.006,0.006
709,0.009,0.007,0.008,0.006,0.004,0.009,0.008,0.002,0.002,0.006,0.006
710,0.006,0.004,0.006,0.005,0.001,0.007,0.005,-0.001,0.0,0.007,0.004
711,0.004,0.002,0.005,0.003,-0.002,0.005,0.003,0.0,-0.001,0.0,0.002
712,0.004,0.003,0.005,0.005,0.0,0.006,0.003,-0.001,0.001,-0.011,0.004
713,0.008,0.007,0.01,0.009,0.004,0.01,0.006,0.001,0.005,-0.012,0.009
714,0.012,0.01,0.014,0.009,0.007,0.013,0.009,0.003,0.008,-0.012,0.011
715,0.014,0.012,0.016,0.011,0.008,0.013,0.013,0.006,0.011,-0.016,0.012
716,0.014,0.012,0.012,0.011,0.007,0.013,0.014,0.004,0.011,-0.012,0.011
717,0.015,0.013,0.012,0.011,0.007,0.012,0.014,0.006,0.012,-0.007,0.012
718,0.013,0.009,0.01,0.008,0.005,0.008,0.011,0.006,0.008,-0.004,0.01
719,0.01,0.007,0.01,0.007,0.005,0.006,0.007,0.005,0.006,-0.01,0.007
720,0.007,0.006,0.009,0.007,0.003,0.006,0.005,0.003,0.004,-0.009,0.003
721,0.007,0.008,0.008,0.006,0.004,0.007,0.005,0.003,0.004,-0.007,0.004
722,0.005,0.005,0.006,0.004,0.001,0.005,0.005,0.0,0.0,-0.008,0.003
723,0.005,0.003,0.007,0.004,0.0,0.006,0.005,-0.001,0.001,-0.004,0.004
724,0.004,0.004,0.006,0.004,-0.001,0.005,0.004,0.0,0.001,-0.002,0.004
725,0.004,0.006,0.006,0.004,0.001,0.004,0.004,0.001,0.001,-0.004,0.003
726,0.006,0.007,0.007,0.006,0.004,0.005,0.008,0.002,0.002,-0.006,0.005
727,0.009,0.007,0.01,0.009,0.006,0.009,0.011,0.002,0.003,-0.004,0.007
728,0.014,0.009,0.014,0.012,0.008,0.013,0.012,0.007,0.007,-0.003,0.009
729,0.015,0.008,0.016,0.012,0.01,0.013,0.012,0.007,0.008,0.003,0.011
730,0.015,0.009,0.012,0.01,0.008,0.013,0.014,0.005,0.009,0.017,0.012
731,0.013,0.009,0.01,0.012,0.008,0.014,0.014,0.002,0.009,0.02,0.011
732,0.011,0.009,0.01,0.01,0.004,0.01,0.01,0.002,0.006,0.018,0.008
733,0.009,0.007,0.01,0.008,0.001,0.007,0.005,0.001,0.003,0.015,0.006
734,0.008,0.007,0.01,0.006,0.002,0.008,0.005,0.0,0.004,0.01,0.006
735,0.007,0.006,0.009,0.005,0.003,0.007,0.004,0.0,0.003,-0.005,0.004
736,0.003,0.002,0.007,0.003,0.0,0.005,0.001,-0.001,-0.001,-0.016,0.0
737,0.0,0.001,0.004,0.001,-0.003,0.001,0.001,-0.003,-0.003,-0.008,0.0
738,0.003,0.003,0.005,0.003,-0.002,0.001,0.004,-0.003,0.0,-0.003,0.001
739,0.008,0.007,0.007,0.007,0.0,0.006,0.007,0.001,0.002,-0.003,0.005
740,0.009,0.008,0.009,0.008,0.002,0.01,0.005,0.006,0.003,-0.015,0.006
741,0.005,0.005,0.007,0.005,0.0,0.007,0.003,0.003,0.001,-0.022,0.001
742,0.006,0.006,0.009,0.006,0.003,0.007,0.006,0.003,0.003,-0.025,0.002
743,0.009,0.007,0.011,0.008,0.003,0.007,0.008,0.005,0.004,-0.009,0.004
744,0.012,0.007,0.014,0.007,0.003,0.007,0.007,0.009,0.004,0.006,0.006
745,0.008,0.004,0.011,0.007,0.002,0.006,0.005,0.008,0.001,0.015,0.006
746,0.009,0.004,0.009,0.008,0.003,0.007,0.007,0.004,0.002,0.02,0.007
747,0.007,0.004,0.006,0.006,0.0,0.006,0.006,0.001,0.002,0.022,0.003
748,0.002,0.002,0.003,0.001,-0.003,0.003,0.001,-0.001,0.0,0.016,-0.002
749,-0.002,-0.001,0.0,-0.001,-0.002,0.001,-0.001,-0.001,-0.002,0.001,-0.003
750,0.0,0.0,0.0,0.0,0.0,0.0,0.0,0.0,0.0,0.0,0.0
751,0.002,0.003,0.005,0.002,0.0,0.003,0.003,0.001,0.001,0.01,0.003
752,0.001,0.004,0.006,0.004,0.0,0.005,0.003,0.0,-0.001,0.014,0.003
753,0.004,0.004,0.005,0.004,0.002,0.005,0.005,0.002,-0.002,0.007,0.002
754,0.006,0.004,0.007,0.007,0.004,0.005,0.006,0.003,0.003,0.01,0.002
755,0.008,0.007,0.01,0.009,0.005,0.008,0.008,0.007,0.007,0.022,0.005
756,0.01,0.01,0.014,0.011,0.008,0.011,0.009,0.009,0.01,0.01,0.008
757,0.015,0.012,0.014,0.011,0.009,0.012,0.013,0.007,0.01,-0.004,0.01
758,0.013,0.01,0.011,0.01,0.01,0.011,0.01,0.008,0.007,-0.007,0.006
759,0.009,0.007,0.009,0.009,0.008,0.011,0.007,0.01,0.007,-0.006,0.006
760,0.01,0.005,0.012,0.01,0.008,0.011,0.008,0.012,0.006,-0.019,0.008
761,0.012,0.008,0.014,0.012,0.007,0.012,0.01,0.013,0.009,-0.016,0.011
762,0.006,0.002,0.007,0.005,0.0,0.006,0.003,0.009,0.002,-0.014,0.005
763,0.001,0.0,0.002,0.001,-0.005,0.002,-0.002,0.007,-0.002,-0.017,0.001
764,0.0,0.001,0.002,0.001,-0.006,0.002,-0.002,0.006,-0.004,-0.02,0.0
765,0.005,0.006,0.008,0.007,-0.001,0.005,0.003,0.007,0.002,-0.014,0.003
766,0.005,0.003,0.008,0.005,-0.001,0.004,0.002,0.003,0.0,-0.014,0.001
767,0.006,0.003,0.008,0.002,0.0,0.005,0.002,0.002,0.0,-0.009,0.0
768,0.006,0.003,0.007,0.004,0.002,0.005,0.0,0.004,-0.001,-0.005,0.001
769,0.008,0.005,0.007,0.007,0.002,0.005,0.002,0.009,0.002,0.002,0.005
770,0.008,0.003,0.007,0.006,0.0,0.004,0.003,0.01,0.005,-0.005,0.007
771,0.007,0.002,0.007,0.003,-0.002,0.004,0.005,0.003,0.004,-0.013,0.004
772,0.003,-0.002,0.003,0.002,-0.003,0.004,0.002,-0.001,-0.003,-0.014,-0.002
773,0.003,-0.003,0.003,-0.001,-0.003,0.004,0.003,0.001,-0.005,-0.023,-0.004
774,0.002,-0.004,0.004,-0.001,-0.002,0.002,0.003,0.006,-0.002,-0.029,-0.002
775,0.002,0.0,0.003,-0.002,-0.004,0.0,0.0,0.007,-0.001,-0.033,-0.001
776,0.002,0.004,0.002,0.0,-0.003,0.0,0.001,0.005,-0.001,-0.026,0.0
777,0.006,0.004,0.002,0.001,-0.005,0.002,0.003,0.004,-0.002,-0.026,0.001
778,0.008,0.002,0.005,0.005,0.0,0.004,0.005,0.003,0.001,-0.007,0.004
779,0.01,0.004,0.01,0.007,0.005,0.008,0.008,0.006,0.007,0.003,0.008
780,0.009,0.008,0.012,0.009,0.006,0.008,0.007,0.001,0.007,-0.001,0.008
781,0.006,0.005,0.007,0.006,0.0,0.006,0.001,-0.003,0.0,0.0,0.004
782,0.005,-0.001,0.002,0.005,-0.002,0.004,-0.002,-0.007,-0.005,0.003,0.002
783,0.005,-0.004,0.002,0.002,-0.004,0.003,-0.003,-0.004,-0.005,0.009,0.001
784,0.003,0.0,0.005,0.005,-0.003,0.003,0.0,-0.001,-0.006,-0.014,0.002
785,0.006,0.008,0.012,0.007,0.0,0.006,0.006,0.005,0.0,-0.018,0.005
786,0.011,0.008,0.015,0.008,0.001,0.007,0.01,0.001,0.004,-0.022,0.007
787,0.013,0.007,0.012,0.004,0.0,0.006,0.008,0.001,0.003,-0.003,0.007
788,0.008,0.007,0.009,0.003,-0.003,0.004,0.005,0.004,-0.002,-0.014,0.004
789,0.006,0.004,0.006,0.003,-0.004,0.004,0.005,0.006,-0.002,-0.013,0.002
790,0.006,0.004,0.003,0.005,-0.002,0.007,0.006,0.004,0.0,-0.012,0.002
791,0.007,0.007,0.004,0.007,0.005,0.006,0.009,0.003,0.001,-0.005,0.007
792,0.007,0.006,0.009,0.007,0.005,0.006,0.008,0.002,0.002,0.006,0.006
793,0.009,0.001,0.011,0.006,0.002,0.004,0.004,-0.002,0.002,0.004,0.006
794,0.007,0.003,0.011,0.005,0.001,0.004,0.003,0.0,0.0,-0.008,0.006
795,0.008,0.007,0.012,0.007,0.003,0.004,0.006,0.002,0.0,-0.01,0.007
796,0.008,0.007,0.008,0.004,0.001,0.008,0.003,0.003,0.0,0.002,0.006
797,0.013,0.01,0.007,0.008,0.004,0.013,0.007,0.009,0.002,0.011,0.009
798,0.01,0.007,0.008,0.009,0.004,0.012,0.006,0.013,0.003,0.0,0.009
799,0.003,0.002,0.007,0.006,0.001,0.007,0.003,0.01,0.001,-0.014,0.009
800,0.008,0.003,0.008,0.005,0.001,0.004,0.005,0.004,0.004,-0.01,0.009
801,0.013,0.007,0.007,0.009,0.003,0.007,0.011,0.004,0.01,0.007,0.006
802,0.014,0.009,0.014,0.012,0.007,0.012,0.012,0.006,0.015,0.007,0.006
803,0.01,0.006,0.012,0.01,0.006,0.014,0.012,0.006,0.009,0.007,0.01
804,0.006,-0.005,0.005,0.005,0.001,0.004,0.003,0.002,-0.002,-0.005,0.004
805,0.001,-0.007,-0.002,0.001,-0.008,-0.003,-0.003,-0.004,-0.005,-0.028,-0.005
806,0.005,0.001,0.003,0.005,-0.003,0.002,0.001,-0.001,0.006,-0.015,-0.002
807,0.019,0.012,0.013,0.013,0.006,0.014,0.014,0.009,0.014,0.018,0.008
808,0.016,0.006,0.009,0.009,0.006,0.011,0.008,0.007,0.009,0.012,0.008
809,0.007,0.001,0.005,0.004,-0.001,0.005,0.0,-0.001,-0.001,-0.013,0.005
810,0.003,-0.003,0.003,0.0,-0.003,0.0,-0.003,-0.001,-0.004,-0.029,0.001
811,0.007,0.001,0.006,0.001,0.001,0.001,0.004,0.001,0.001,-0.034,-0.001
812,0.005,0.0,-0.001,0.001,0.0,-0.003,0.0,-0.008,0.0,-0.038,-0.001
813,0.006,0.001,0.0,0.008,0.001,0.003,0.006,-0.003,0.001,-0.029,0.006
814,0.007,-0.001,0.004,0.009,-0.001,0.006,0.006,-0.001,0.0,-0.012,0.004
815,0.01,0.001,0.009,0.013,0.005,0.011,0.01,0.004,0.001,0.0,0.008
816,0.01,0.007,0.011,0.013,0.01,0.007,0.009,0.0,0.002,0.008,0.013
817,0.014,0.013,0.011,0.015,0.009,0.01,0.015,0.006,0.006,0.016,0.011
818,0.01,0.008,0.001,0.001,-0.004,0.007,0.007,-0.006,0.001,0.02,0.001
819,0.005,-0.003,0.0,-0.003,-0.008,0.004,0.001,-0.011,-0.004,-0.009,-0.002
820,0.004,-0.001,0.001,0.0,-0.003,0.005,0.001,-0.009,0.0,-0.018,0.0
821,0.005,0.003,0.006,0.007,0.002,0.009,0.003,0.002,0.003,0.013,0.002
822,0.003,0.005,0.004,0.002,-0.002,0.006,0.002,0.005,-0.001,0.022,0.002
823,0.004,0.004,0.008,0.005,0.0,0.004,0.005,0.007,-0.002,0.012,0.002
824,0.006,0.009,0.01,0.007,0.001,0.008,0.008,0.001,0.002,0.009,0.003
825,0.007,0.01,0.012,0.008,0.003,0.012,0.008,-0.013,0.004,0.009,0.007
826,0.009,0.011,0.013,0.009,0.006,0.013,0.009,-0.009,0.006,0.001,0.007
827,0.01,0.011,0.011,0.01,0.008,0.012,0.01,0.008,0.005,0.004,0.007
828,0.009,0.01,0.009,0.007,0.005,0.007,0.008,0.014,0.003,0.015,0.007
829,0.006,0.008,0.01,0.006,0.0,0.005,0.005,0.001,0.003,0.007,0.008
830,0.007,0.008,0.011,0.007,0.0,0.006,0.008,-0.006,0.006,0.003,0.004
831,0.015,0.014,0.013,0.014,0.006,0.017,0.015,0.002,0.01,0.018,0.01
832,0.017,0.013,0.013,0.018,0.007,0.018,0.015,0.006,0.007,0.012,0.012
833,0.01,0.01,0.013,0.014,0.005,0.016,0.013,0.005,0.004,-0.006,0.007
834,0.009,0.01,0.012,0.01,0.006,0.01,0.012,0.007,0.006,-0.001,0.003
835,0.012,0.012,0.013,0.01,0.011,0.014,0.013,0.011,0.012,0.015,0.008
836,0.014,0.009,0.012,0.009,0.008,0.011,0.008,0.002,0.007,0.009,0.007
837,0.009,0.004,0.007,0.004,0.003,0.008,0.0,-0.015,-0.001,0.012,0.0
838,0.003,0.003,0.002,0.001,0.002,0.009,-0.004,-0.022,-0.003,0.009,0.002
839,0.009,-0.003,0.001,0.002,0.0,0.007,-0.004,-0.014,-0.002,-0.02,0.002
840,0.01,0.001,0.009,0.005,-0.001,0.009,0.004,0.0,0.004,-0.009,0.009
