,0,1,2,3,4,5,6,7,8,9,10,12,11
220,0.034,0.042,0.028,0.031,0.035,0.035,0.031,0.032,0.043,0.04,0.052,0.035,0.078
221,0.031,0.038,0.025,0.03,0.033,0.032,0.027,0.028,0.039,0.036,0.049,0.033,0.073
222,0.031,0.038,0.024,0.03,0.033,0.032,0.027,0.026,0.038,0.034,0.047,0.032,0.07
223,0.03,0.037,0.025,0.03,0.032,0.031,0.028,0.025,0.037,0.034,0.046,0.032,0.068
224,0.03,0.036,0.024,0.028,0.03,0.029,0.026,0.026,0.036,0.033,0.044,0.032,0.065
225,0.029,0.036,0.023,0.026,0.029,0.028,0.025,0.025,0.035,0.033,0.043,0.03,0.064
226,0.028,0.036,0.022,0.026,0.028,0.028,0.024,0.023,0.035,0.032,0.042,0.029,0.062
227,0.026,0.034,0.02,0.024,0.025,0.026,0.022,0.02,0.032,0.03,0.038,0.027,0.058
228,0.023,0.031,0.019,0.022,0.023,0.022,0.021,0.017,0.03,0.026,0.035,0.024,0.053
229,0.02,0.029,0.016,0.02,0.021,0.019,0.019,0.015,0.027,0.023,0.031,0.022,0.048
230,0.02,0.029,0.016,0.019,0.021,0.02,0.018,0.015,0.026,0.023,0.03,0.021,0.046
231,0.02,0.029,0.015,0.019,0.021,0.02,0.018,0.015,0.026,0.023,0.03,0.022,0.044
232,0.019,0.028,0.014,0.018,0.02,0.02,0.017,0.015,0.025,0.023,0.029,0.022,0.042
233,0.019,0.027,0.014,0.018,0.019,0.019,0.016,0.014,0.024,0.021,0.028,0.021,0.04
234,0.018,0.025,0.011,0.016,0.017,0.016,0.014,0.012,0.022,0.019,0.025,0.019,0.037
235,0.018,0.024,0.012,0.015,0.017,0.016,0.014,0.012,0.022,0.018,0.024,0.017,0.035
236,0.017,0.024,0.012,0.015,0.017,0.015,0.013,0.011,0.021,0.018,0.023,0.017,0.034
237,0.016,0.023,0.011,0.014,0.015,0.014,0.012,0.009,0.02,0.019,0.022,0.018,0.032
238,0.016,0.022,0.011,0.014,0.015,0.013,0.012,0.009,0.019,0.018,0.022,0.018,0.031
239,0.014,0.021,0.01,0.013,0.014,0.013,0.012,0.008,0.019,0.017,0.021,0.018,0.031
240,0.013,0.02,0.009,0.012,0.014,0.012,0.011,0.008,0.019,0.015,0.02,0.016,0.031
241,0.012,0.02,0.009,0.012,0.013,0.012,0.01,0.008,0.017,0.014,0.017,0.015,0.029
242,0.011,0.02,0.008,0.011,0.012,0.011,0.009,0.007,0.016,0.012,0.016,0.013,0.027
243,0.011,0.019,0.008,0.011,0.011,0.01,0.009,0.007,0.015,0.012,0.015,0.013,0.027
244,0.012,0.018,0.007,0.01,0.011,0.01,0.008,0.006,0.015,0.012,0.015,0.014,0.027
245,0.012,0.017,0.006,0.01,0.011,0.01,0.007,0.005,0.014,0.011,0.014,0.014,0.027
246,0.011,0.016,0.006,0.009,0.011,0.009,0.007,0.004,0.013,0.01,0.013,0.013,0.025
247,0.009,0.017,0.006,0.009,0.01,0.008,0.007,0.004,0.012,0.009,0.013,0.013,0.024
248,0.009,0.017,0.007,0.009,0.01,0.008,0.007,0.005,0.012,0.009,0.013,0.012,0.025
249,0.01,0.017,0.007,0.01,0.011,0.009,0.008,0.005,0.013,0.011,0.013,0.013,0.026
250,0.01,0.017,0.006,0.009,0.011,0.009,0.007,0.005,0.013,0.011,0.013,0.013,0.027
251,0.01,0.015,0.005,0.009,0.01,0.009,0.007,0.004,0.012,0.011,0.013,0.012,0.027
252,0.008,0.014,0.004,0.007,0.008,0.007,0.005,0.003,0.01,0.009,0.011,0.011,0.025
253,0.007,0.012,0.004,0.007,0.008,0.006,0.004,0.003,0.009,0.008,0.009,0.011,0.023
254,0.007,0.012,0.004,0.007,0.008,0.006,0.004,0.003,0.009,0.008,0.009,0.012,0.024
255,0.007,0.012,0.005,0.007,0.007,0.006,0.005,0.003,0.009,0.008,0.009,0.013,0.025
256,0.007,0.012,0.005,0.007,0.007,0.007,0.005,0.003,0.01,0.008,0.009,0.012,0.025
257,0.008,0.011,0.003,0.006,0.006,0.005,0.004,0.003,0.007,0.006,0.007,0.011,0.023
258,0.007,0.009,0.002,0.004,0.005,0.004,0.002,0.002,0.006,0.005,0.006,0.01,0.022
259,0.005,0.007,0.002,0.003,0.005,0.002,0.001,0.001,0.004,0.003,0.004,0.008,0.021
260,0.004,0.008,0.002,0.004,0.004,0.002,0.001,0.0,0.003,0.002,0.004,0.008,0.021
261,0.004,0.007,0.003,0.004,0.004,0.003,0.002,0.0,0.003,0.002,0.004,0.008,0.021
262,0.005,0.007,0.002,0.003,0.003,0.002,0.0,-0.002,0.002,0.001,0.003,0.008,0.02
263,0.005,0.006,0.002,0.003,0.003,0.002,0.0,-0.001,0.002,0.002,0.004,0.009,0.02
264,0.005,0.007,0.003,0.004,0.004,0.003,0.001,0.0,0.003,0.003,0.004,0.009,0.021
265,0.005,0.008,0.004,0.005,0.005,0.003,0.001,0.001,0.004,0.004,0.005,0.009,0.021
266,0.005,0.008,0.004,0.005,0.005,0.003,0.002,0.001,0.004,0.003,0.005,0.01,0.021
267,0.005,0.006,0.002,0.004,0.004,0.002,0.001,0.0,0.004,0.002,0.003,0.008,0.019
268,0.005,0.006,0.001,0.003,0.004,0.002,0.001,0.0,0.003,0.002,0.003,0.008,0.018
269,0.005,0.006,0.001,0.003,0.003,0.002,0.0,0.0,0.003,0.002,0.002,0.008,0.018
270,0.004,0.006,0.001,0.003,0.003,0.002,0.0,-0.001,0.002,0.001,0.002,0.007,0.017
271,0.004,0.006,0.002,0.003,0.003,0.002,0.0,-0.001,0.001,0.002,0.003,0.006,0.017
272,0.005,0.007,0.003,0.004,0.004,0.003,0.001,0.0,0.003,0.003,0.005,0.008,0.018
273,0.006,0.007,0.004,0.005,0.005,0.003,0.002,0.001,0.004,0.004,0.006,0.009,0.018
274,0.005,0.007,0.003,0.004,0.005,0.003,0.002,0.001,0.004,0.003,0.005,0.009,0.017
275,0.004,0.006,0.002,0.003,0.004,0.002,0.0,-0.001,0.002,0.001,0.003,0.008,0.016
276,0.004,0.005,0.002,0.003,0.003,0.002,0.001,-0.002,0.002,0.001,0.003,0.008,0.016
277,0.004,0.006,0.003,0.004,0.004,0.002,0.001,-0.002,0.002,0.002,0.003,0.009,0.017
278,0.005,0.006,0.003,0.004,0.004,0.001,0.0,-0.001,0.002,0.002,0.003,0.009,0.016
279,0.003,0.005,0.002,0.003,0.003,0.0,-0.001,-0.002,0.002,0.001,0.002,0.008,0.014
280,0.003,0.005,0.002,0.003,0.003,0.0,-0.001,-0.001,0.002,0.0,0.002,0.007,0.014
281,0.003,0.005,0.002,0.003,0.003,0.001,0.0,0.0,0.003,0.001,0.002,0.007,0.015
282,0.002,0.005,0.002,0.002,0.003,0.002,0.0,-0.001,0.002,0.001,0.002,0.007,0.015
283,0.003,0.004,0.002,0.003,0.003,0.003,0.001,0.0,0.003,0.003,0.003,0.008,0.016
284,0.003,0.004,0.002,0.003,0.003,0.002,0.0,0.0,0.002,0.002,0.003,0.008,0.015
285,0.003,0.005,0.002,0.002,0.003,0.002,0.0,0.0,0.002,0.002,0.003,0.008,0.015
286,0.002,0.005,0.001,0.001,0.002,0.001,0.0,-0.001,0.001,0.0,0.001,0.006,0.014
287,0.002,0.004,0.001,0.001,0.003,0.0,0.0,-0.001,0.0,-0.001,0.001,0.006,0.014
288,0.003,0.005,0.002,0.002,0.003,0.002,0.001,-0.001,0.001,0.001,0.001,0.007,0.013
289,0.004,0.005,0.002,0.003,0.003,0.002,0.001,0.0,0.002,0.001,0.001,0.007,0.012
290,0.004,0.005,0.003,0.003,0.003,0.001,0.001,0.0,0.002,0.001,0.001,0.007,0.011
291,0.003,0.005,0.003,0.003,0.003,0.001,0.0,0.0,0.002,0.002,0.002,0.007,0.011
292,0.003,0.005,0.003,0.002,0.003,0.002,0.001,0.0,0.002,0.003,0.002,0.009,0.013
293,0.003,0.004,0.002,0.001,0.003,0.001,0.001,0.0,0.001,0.001,0.002,0.008,0.011
294,0.002,0.003,0.0,0.0,0.001,-0.001,-0.001,-0.002,-0.001,0.0,0.0,0.006,0.01
295,0.0,0.002,0.0,-0.001,0.0,-0.001,-0.003,-0.003,-0.002,-0.002,-0.001,0.005,0.008
296,0.001,0.003,0.0,-0.001,0.0,-0.001,-0.003,-0.003,-0.001,-0.002,-0.001,0.005,0.008
297,0.001,0.003,0.001,0.001,0.0,-0.001,-0.002,-0.003,0.0,-0.002,-0.001,0.005,0.008
298,0.002,0.003,0.002,0.002,0.001,0.0,-0.001,-0.002,0.001,-0.001,0.0,0.006,0.008
299,0.002,0.003,0.001,0.003,0.002,0.0,-0.001,-0.002,0.001,0.0,0.0,0.006,0.008
300,0.002,0.003,0.001,0.002,0.002,0.0,-0.001,-0.002,0.0,0.0,0.0,0.006,0.007
301,0.002,0.003,0.001,0.001,0.002,0.0,-0.001,-0.002,0.0,0.0,0.0,0.006,0.006
302,0.003,0.002,0.001,0.001,0.002,0.0,-0.001,-0.002,0.0,-0.001,0.0,0.006,0.006
303,0.004,0.003,0.002,0.003,0.003,0.002,0.0,0.0,0.001,0.0,0.0,0.008,0.008
304,0.004,0.004,0.002,0.003,0.004,0.002,0.001,0.001,0.003,0.001,0.0,0.009,0.009
305,0.002,0.004,0.002,0.002,0.004,0.002,0.0,0.0,0.001,0.001,0.0,0.009,0.009
306,0.002,0.005,0.002,0.002,0.003,0.002,0.0,0.0,0.001,0.002,-0.001,0.008,0.009
307,0.003,0.005,0.003,0.002,0.003,0.002,0.001,-0.001,0.001,0.002,0.0,0.008,0.008
308,0.004,0.005,0.002,0.003,0.003,0.002,0.001,-0.001,0.001,0.001,0.0,0.008,0.007
309,0.004,0.003,0.001,0.003,0.003,0.001,0.0,-0.001,0.0,0.0,-0.001,0.007,0.007
310,0.003,0.002,0.002,0.002,0.002,0.0,-0.001,-0.002,0.0,0.0,-0.001,0.007,0.007
311,0.003,0.003,0.002,0.002,0.002,0.0,0.0,-0.001,0.001,0.001,-0.001,0.007,0.008
312,0.003,0.004,0.002,0.002,0.002,0.001,0.0,-0.001,0.001,0.002,0.0,0.008,0.007
313,0.003,0.004,0.003,0.001,0.002,0.001,0.0,-0.001,0.001,0.001,0.0,0.008,0.007
314,0.002,0.003,0.002,0.001,0.002,0.001,-0.001,-0.001,0.0,0.0,-0.001,0.006,0.006
315,0.002,0.002,0.001,0.0,0.002,0.001,-0.002,-0.002,-0.001,-0.001,-0.002,0.005,0.006
316,0.002,0.003,0.0,0.001,0.002,0.0,-0.002,-0.001,0.0,-0.001,-0.002,0.005,0.005
317,0.002,0.003,0.0,0.001,0.002,0.001,-0.002,0.0,0.0,-0.001,-0.002,0.006,0.006
318,0.003,0.003,0.001,0.002,0.002,0.001,0.0,0.0,0.001,0.0,-0.001,0.007,0.006
319,0.002,0.003,0.001,0.002,0.002,0.002,-0.001,-0.002,0.0,-0.001,-0.001,0.007,0.006
320,0.002,0.002,0.001,0.001,0.001,0.001,-0.001,-0.003,-0.001,-0.001,-0.002,0.006,0.005
321,0.002,0.002,0.001,0.001,0.001,0.001,-0.001,-0.002,-0.001,-0.001,-0.001,0.007,0.005
322,0.002,0.002,0.001,0.002,0.002,0.001,0.0,-0.001,0.0,0.0,0.0,0.008,0.006
323,0.003,0.003,0.002,0.003,0.003,0.002,0.001,0.001,0.001,0.001,0.001,0.008,0.008
324,0.003,0.003,0.002,0.003,0.003,0.002,0.0,0.0,0.001,0.001,0.001,0.008,0.008
325,0.002,0.003,0.002,0.002,0.002,0.001,0.0,0.0,0.001,-0.001,0.0,0.008,0.007
326,0.003,0.003,0.001,0.002,0.002,0.0,-0.001,-0.001,0.0,-0.001,-0.001,0.007,0.006
327,0.003,0.004,0.001,0.003,0.003,0.0,0.0,-0.001,0.0,0.0,-0.001,0.007,0.006
328,0.003,0.004,0.001,0.003,0.002,0.0,0.0,0.0,-0.001,0.0,-0.001,0.006,0.006
329,0.002,0.003,0.001,0.002,0.001,-0.001,-0.001,-0.001,-0.002,-0.001,-0.002,0.006,0.005
330,0.002,0.001,0.0,0.001,-0.001,-0.001,-0.002,-0.003,-0.002,-0.002,-0.003,0.006,0.003
331,0.002,0.002,0.001,0.002,0.001,0.0,-0.001,-0.002,0.0,0.0,-0.002,0.007,0.005
332,0.004,0.004,0.003,0.003,0.003,0.002,0.001,0.0,0.002,0.001,0.001,0.009,0.007
333,0.005,0.005,0.004,0.004,0.004,0.003,0.003,0.001,0.003,0.002,0.0,0.009,0.008
334,0.004,0.005,0.003,0.003,0.003,0.002,0.002,0.001,0.001,0.001,0.0,0.008,0.007
335,0.002,0.004,0.003,0.002,0.003,0.001,0.001,-0.001,0.0,0.0,0.0,0.007,0.006
336,0.0,0.003,0.002,0.002,0.001,0.0,0.0,-0.002,0.0,-0.001,-0.001,0.007,0.005
337,0.0,0.001,0.001,0.001,0.001,0.0,0.0,-0.002,0.0,-0.001,-0.001,0.007,0.004
338,0.001,0.0,0.0,0.001,-0.001,-0.001,-0.002,-0.002,-0.001,-0.001,-0.003,0.006,0.004
339,0.001,0.0,-0.001,0.0,-0.001,-0.001,-0.002,-0.003,-0.002,-0.002,-0.004,0.005,0.003
340,0.001,0.0,0.0,0.0,0.0,-0.002,-0.002,-0.003,-0.002,-0.002,-0.003,0.005,0.004
341,0.001,0.001,0.002,0.0,0.001,-0.001,-0.001,-0.002,-0.002,-0.001,-0.003,0.005,0.004
342,0.002,0.002,0.003,0.002,0.001,0.0,0.0,-0.001,0.0,0.0,-0.002,0.006,0.005
343,0.003,0.003,0.003,0.003,0.002,0.001,0.001,0.0,0.0,0.0,-0.001,0.007,0.006
344,0.002,0.001,0.0,0.001,0.0,0.0,-0.001,-0.002,-0.001,-0.001,-0.002,0.006,0.004
345,0.002,0.0,0.0,0.0,0.0,-0.001,-0.002,-0.002,-0.002,-0.002,-0.003,0.005,0.004
346,0.001,0.0,0.0,-0.001,-0.001,-0.001,-0.002,-0.003,-0.003,-0.002,-0.003,0.004,0.003
347,0.001,0.0,0.0,-0.001,-0.001,-0.002,-0.002,-0.003,-0.002,-0.001,-0.003,0.005,0.003
348,0.002,0.001,0.0,0.001,0.0,-0.001,-0.001,-0.002,-0.002,0.0,-0.003,0.005,0.004
349,0.003,0.002,0.001,0.002,0.001,0.0,0.0,-0.002,0.0,0.0,-0.002,0.005,0.005
350,0.003,0.003,0.002,0.002,0.002,0.001,0.001,-0.001,0.001,0.0,-0.001,0.006,0.006
351,0.002,0.003,0.001,0.002,0.001,0.0,0.0,-0.002,-0.001,-0.001,-0.002,0.006,0.005
352,0.001,0.001,0.0,0.0,-0.001,-0.002,-0.002,-0.003,-0.002,-0.004,-0.003,0.005,0.004
353,0.0,0.0,-0.001,0.0,-0.001,-0.003,-0.002,-0.004,-0.003,-0.004,-0.003,0.004,0.003
354,0.001,0.001,0.001,0.001,0.0,-0.001,-0.001,-0.002,-0.002,-0.002,-0.003,0.005,0.004
355,0.002,0.003,0.002,0.003,0.003,0.001,0.0,0.0,0.0,0.0,-0.001,0.008,0.006
356,0.002,0.003,0.002,0.003,0.003,0.001,0.0,0.001,0.001,0.002,-0.001,0.009,0.007
357,0.002,0.003,0.002,0.002,0.003,0.001,0.0,0.0,0.001,0.001,-0.001,0.009,0.007
358,0.002,0.002,0.001,0.0,0.001,0.0,-0.002,-0.002,-0.001,-0.001,-0.002,0.007,0.005
359,0.002,0.001,0.0,0.0,0.001,-0.001,-0.002,-0.003,-0.003,-0.002,-0.003,0.006,0.004
360,0.002,0.0,0.0,0.0,0.001,-0.001,-0.002,-0.003,-0.002,-0.002,-0.003,0.005,0.005
361,0.002,0.001,0.0,0.0,0.001,-0.001,-0.001,-0.002,-0.002,-0.002,-0.003,0.006,0.004
362,0.002,0.002,0.001,0.001,0.002,-0.001,-0.001,-0.002,-0.002,-0.002,-0.003,0.006,0.003
363,0.002,0.003,0.002,0.001,0.001,-0.001,-0.002,-0.003,-0.002,-0.003,-0.003,0.005,0.001
364,0.002,0.003,0.001,0.0,0.0,-0.001,-0.002,-0.003,-0.001,-0.002,-0.003,0.006,0.003
365,0.001,0.001,0.0,0.0,0.0,-0.001,-0.002,-0.003,-0.001,-0.001,-0.003,0.006,0.004
366,0.001,0.001,0.0,0.0,0.0,-0.001,-0.001,-0.001,-0.001,0.0,-0.002,0.006,0.005
367,0.001,0.001,0.001,0.001,0.001,-0.001,0.0,-0.001,-0.001,0.0,-0.002,0.005,0.005
368,0.002,0.002,0.002,0.002,0.001,-0.001,0.0,-0.001,-0.001,-0.001,-0.002,0.006,0.004
369,0.002,0.002,0.002,0.001,0.001,-0.001,0.0,-0.001,-0.001,-0.002,-0.002,0.006,0.005
370,0.002,0.002,0.001,0.0,0.001,0.0,-0.001,-0.002,0.0,-0.001,-0.003,0.007,0.005
371,0.002,0.002,0.001,0.0,0.0,0.0,-0.002,-0.002,-0.001,-0.002,-0.004,0.006,0.005
372,0.002,0.002,0.001,0.001,0.001,0.0,-0.002,-0.001,-0.001,-0.001,-0.004,0.007,0.005
373,0.003,0.003,0.002,0.002,0.001,0.0,-0.001,0.001,0.0,-0.001,-0.002,0.007,0.006
374,0.002,0.002,0.003,0.001,0.002,0.0,-0.001,0.0,0.0,-0.001,-0.002,0.007,0.006
375,0.003,0.003,0.003,0.001,0.002,0.001,0.0,0.0,0.0,0.0,-0.002,0.007,0.006
376,0.003,0.003,0.003,0.002,0.003,0.002,0.001,0.0,0.001,0.0,-0.001,0.007,0.006
377,0.005,0.004,0.004,0.003,0.004,0.003,0.002,0.002,0.002,0.002,0.0,0.008,0.006
378,0.005,0.005,0.005,0.004,0.005,0.003,0.003,0.002,0.002,0.002,0.0,0.009,0.007
379,0.003,0.004,0.004,0.003,0.003,0.001,0.001,0.0,0.001,0.0,-0.002,0.009,0.006
380,0.001,0.002,0.002,0.001,0.002,0.0,-0.001,-0.002,-0.002,-0.001,-0.003,0.008,0.005
381,0.001,0.002,0.001,0.001,0.002,0.0,0.0,-0.001,-0.001,-0.001,-0.002,0.007,0.005
382,0.002,0.002,0.002,0.001,0.002,0.0,0.0,0.0,0.0,0.001,-0.001,0.007,0.005
383,0.002,0.002,0.002,0.0,0.001,-0.001,0.0,-0.001,0.0,0.0,-0.002,0.007,0.005
384,0.003,0.003,0.002,0.001,0.0,-0.001,0.0,-0.001,-0.001,0.0,-0.002,0.008,0.006
385,0.003,0.004,0.002,0.002,0.002,0.0,0.0,0.0,0.001,0.001,-0.001,0.008,0.007
386,0.005,0.005,0.004,0.004,0.005,0.002,0.002,0.003,0.003,0.003,0.002,0.01,0.008
387,0.003,0.005,0.004,0.004,0.004,0.002,0.002,0.002,0.002,0.003,0.002,0.009,0.006
388,0.002,0.004,0.003,0.002,0.002,0.0,0.001,0.0,0.0,0.0,-0.001,0.007,0.005
389,0.003,0.004,0.003,0.001,0.001,-0.001,0.0,-0.001,0.0,-0.001,-0.002,0.006,0.005
390,0.004,0.004,0.003,0.001,0.001,-0.001,-0.001,-0.001,0.0,0.0,-0.002,0.006,0.004
391,0.005,0.003,0.002,0.002,0.001,0.0,0.0,-0.001,0.0,0.0,-0.002,0.006,0.005
392,0.004,0.003,0.001,0.001,0.001,0.0,-0.001,-0.001,0.0,0.0,-0.002,0.006,0.004
393,0.004,0.003,0.001,0.002,0.003,0.001,0.0,0.0,0.001,0.0,-0.001,0.006,0.005
394,0.004,0.004,0.003,0.002,0.003,0.002,0.001,0.001,0.001,0.001,0.0,0.007,0.006
395,0.003,0.004,0.004,0.002,0.003,0.002,0.002,0.001,0.001,0.001,-0.001,0.008,0.005
396,0.004,0.004,0.004,0.003,0.003,0.002,0.002,0.001,0.002,0.001,0.0,0.009,0.007
397,0.004,0.003,0.004,0.003,0.003,0.001,0.001,0.0,0.002,0.0,-0.002,0.009,0.007
398,0.004,0.003,0.003,0.002,0.003,0.0,0.0,-0.001,0.001,0.0,-0.002,0.008,0.006
399,0.003,0.003,0.001,0.0,0.002,-0.001,-0.002,-0.002,-0.001,-0.001,-0.003,0.007,0.004
400,0.002,0.003,0.002,0.0,0.001,-0.001,-0.002,-0.003,-0.001,-0.002,-0.004,0.006,0.004
401,0.003,0.003,0.002,0.001,0.001,-0.001,-0.002,-0.002,-0.001,-0.002,-0.004,0.006,0.005
402,0.003,0.002,0.002,0.001,0.002,-0.001,-0.001,-0.001,-0.002,-0.002,-0.004,0.005,0.004
403,0.004,0.003,0.002,0.001,0.002,0.0,0.0,0.0,-0.001,-0.001,-0.003,0.006,0.004
404,0.005,0.004,0.003,0.002,0.003,0.0,0.002,0.001,0.001,0.001,-0.001,0.008,0.006
405,0.004,0.004,0.003,0.002,0.002,0.0,0.001,0.0,0.0,0.001,-0.001,0.008,0.006
406,0.004,0.003,0.003,0.003,0.002,0.0,0.001,0.0,0.0,0.0,-0.001,0.008,0.006
407,0.004,0.003,0.003,0.003,0.002,-0.001,0.0,-0.001,0.0,-0.002,-0.002,0.007,0.005
408,0.004,0.003,0.003,0.003,0.003,-0.001,0.0,-0.001,0.0,-0.002,-0.003,0.006,0.004
409,0.003,0.004,0.003,0.003,0.003,0.001,0.0,0.0,0.0,-0.001,-0.002,0.006,0.006
410,0.002,0.003,0.001,0.001,0.001,0.0,-0.001,-0.001,-0.002,-0.002,-0.003,0.006,0.004
411,0.001,0.001,0.0,0.0,0.0,-0.001,-0.002,-0.003,-0.002,-0.003,-0.004,0.005,0.003
412,0.001,0.001,0.0,0.0,0.0,-0.002,-0.002,-0.003,-0.002,-0.003,-0.005,0.005,0.002
413,0.001,0.002,0.001,0.0,0.0,-0.002,-0.002,-0.003,-0.002,-0.003,-0.004,0.006,0.003
414,0.002,0.003,0.001,0.0,0.001,-0.002,-0.001,-0.002,-0.001,-0.001,-0.002,0.006,0.005
415,0.003,0.002,0.0,-0.001,0.0,-0.001,-0.001,-0.002,-0.002,-0.002,-0.003,0.005,0.005
416,0.003,0.002,0.0,-0.001,-0.001,-0.001,-0.001,-0.002,-0.002,-0.003,-0.004,0.004,0.004
417,0.004,0.003,0.002,0.002,0.0,0.0,0.001,-0.001,0.0,-0.001,-0.002,0.006,0.005
418,0.005,0.004,0.002,0.002,0.001,0.0,0.0,-0.001,-0.001,-0.001,-0.002,0.006,0.005
419,0.004,0.003,0.002,0.002,0.002,-0.001,-0.001,-0.002,-0.001,-0.002,-0.003,0.006,0.005
420,0.003,0.002,0.001,0.001,0.001,-0.002,-0.002,-0.003,-0.002,-0.003,-0.004,0.005,0.004
421,0.002,0.002,0.001,0.0,0.0,-0.002,-0.002,-0.003,-0.002,-0.003,-0.004,0.005,0.003
422,0.004,0.004,0.003,0.001,0.001,0.0,0.001,-0.001,0.0,0.0,-0.001,0.007,0.005
423,0.003,0.003,0.002,0.0,-0.001,-0.001,-0.001,-0.002,-0.001,-0.002,-0.002,0.006,0.003
424,0.002,0.002,0.001,0.0,0.0,-0.002,-0.002,-0.002,-0.002,-0.002,-0.004,0.005,0.002
425,0.003,0.004,0.002,0.001,0.002,-0.001,-0.002,-0.002,-0.002,-0.003,-0.003,0.005,0.002
426,0.004,0.004,0.004,0.002,0.004,0.0,0.0,-0.002,-0.001,-0.002,-0.003,0.005,0.004
427,0.004,0.003,0.004,0.003,0.002,0.001,0.001,-0.001,-0.001,-0.002,-0.002,0.006,0.005
428,0.003,0.001,0.001,0.0,0.0,-0.001,-0.001,-0.002,-0.001,-0.003,-0.003,0.005,0.003
429,0.002,0.0,-0.001,-0.002,-0.001,-0.003,-0.002,-0.003,-0.002,-0.003,-0.004,0.003,0.001
430,0.003,0.002,0.0,-0.001,0.0,-0.002,-0.001,-0.002,0.0,-0.001,-0.003,0.005,0.002
431,0.003,0.003,0.002,0.0,0.0,-0.002,0.0,-0.002,0.0,-0.001,-0.002,0.005,0.004
432,0.003,0.002,0.002,0.0,-0.001,-0.002,-0.001,-0.001,-0.001,-0.001,-0.002,0.005,0.005
433,0.002,0.001,0.001,-0.001,-0.001,-0.002,-0.002,-0.002,-0.001,-0.002,-0.003,0.005,0.005
434,0.001,0.001,0.0,-0.002,-0.001,-0.002,-0.002,-0.002,-0.002,-0.002,-0.004,0.005,0.005
435,0.002,0.002,0.0,-0.001,0.0,-0.001,-0.001,-0.002,-0.001,-0.002,-0.004,0.006,0.006
436,0.003,0.002,0.0,-0.001,-0.001,-0.001,-0.002,-0.003,-0.001,-0.003,-0.004,0.006,0.005
437,0.004,0.002,0.001,0.0,-0.001,-0.001,-0.002,-0.003,-0.002,-0.003,-0.005,0.005,0.004
438,0.005,0.003,0.002,0.0,0.0,-0.001,-0.001,-0.001,-0.002,-0.002,-0.003,0.005,0.003
439,0.005,0.002,0.002,0.0,0.0,-0.001,-0.001,-0.001,-0.002,-0.001,-0.002,0.006,0.004
440,0.006,0.002,0.002,0.0,-0.001,-0.002,-0.001,-0.003,-0.002,-0.002,-0.002,0.006,0.004
441,0.004,0.002,0.002,0.0,0.0,-0.002,-0.002,-0.003,-0.002,-0.003,-0.004,0.004,0.003
442,0.004,0.002,0.001,0.0,0.0,-0.002,-0.002,-0.004,-0.002,-0.004,-0.004,0.003,0.002
443,0.003,0.001,0.0,-0.001,0.0,-0.001,-0.002,-0.004,-0.002,-0.003,-0.004,0.003,0.001
444,0.003,0.002,0.0,-0.001,-0.001,-0.001,-0.002,-0.003,-0.001,-0.003,-0.003,0.004,0.002
445,0.003,0.002,0.001,-0.001,0.0,-0.001,-0.001,-0.002,0.0,-0.002,-0.002,0.005,0.003
446,0.004,0.003,0.003,0.001,0.001,0.0,0.0,-0.001,0.0,-0.001,-0.002,0.006,0.005
447,0.004,0.003,0.003,0.001,0.002,-0.001,-0.001,-0.002,-0.001,-0.001,-0.003,0.006,0.005
448,0.003,0.001,0.001,-0.001,-0.001,-0.002,-0.002,-0.004,-0.003,-0.003,-0.005,0.005,0.004
449,0.001,0.0,-0.001,-0.003,-0.003,-0.003,-0.004,-0.005,-0.005,-0.005,-0.006,0.004,0.002
450,-0.001,-0.002,-0.001,-0.003,-0.003,-0.004,-0.005,-0.005,-0.005,-0.005,-0.006,0.003,0.001
451,0.0,0.0,0.0,-0.001,-0.001,-0.003,-0.003,-0.004,-0.003,-0.003,-0.005,0.004,0.002
452,0.002,0.002,0.001,0.001,0.001,-0.001,-0.001,-0.002,-0.001,0.0,-0.002,0.007,0.003
453,0.004,0.003,0.002,0.002,0.003,0.0,0.001,0.0,0.001,0.001,-0.001,0.008,0.003
454,0.004,0.003,0.002,0.003,0.003,0.001,0.002,0.002,0.002,0.002,0.001,0.009,0.004
455,0.002,0.002,0.001,0.002,0.002,0.001,0.001,0.0,0.001,0.001,0.0,0.006,0.003
456,0.002,0.002,0.0,0.0,0.001,0.0,-0.001,-0.001,-0.001,-0.001,-0.002,0.005,0.003
457,0.002,0.002,0.0,-0.001,0.0,-0.001,-0.002,-0.004,-0.002,-0.002,-0.003,0.005,0.003
458,0.002,0.001,0.001,-0.001,-0.001,-0.002,-0.003,-0.004,-0.001,-0.003,-0.003,0.006,0.004
459,0.001,0.001,0.0,-0.001,-0.001,-0.002,-0.002,-0.004,-0.001,-0.003,-0.003,0.005,0.003
460,0.001,0.001,-0.001,-0.001,-0.002,-0.003,-0.002,-0.004,-0.003,-0.004,-0.004,0.003,0.002
461,0.0,0.0,-0.001,-0.001,-0.001,-0.004,-0.002,-0.004,-0.004,-0.003,-0.004,0.003,-0.001
462,-0.001,0.0,-0.002,-0.002,-0.001,-0.004,-0.003,-0.004,-0.004,-0.004,-0.005,0.003,-0.001
463,0.001,0.001,0.001,0.0,0.0,-0.002,-0.003,-0.003,-0.003,-0.004,-0.004,0.005,0.003
464,0.002,0.003,0.001,-0.001,0.0,-0.001,-0.002,-0.003,-0.002,-0.003,-0.004,0.006,0.004
465,0.002,0.003,0.001,0.0,0.0,-0.001,-0.002,-0.003,-0.001,-0.003,-0.003,0.005,0.004
466,0.0,0.001,0.001,0.0,-0.001,-0.002,-0.003,-0.004,-0.003,-0.003,-0.004,0.004,0.002
467,0.0,-0.001,0.001,0.0,-0.002,-0.003,-0.003,-0.004,-0.003,-0.004,-0.004,0.004,0.001
468,0.001,0.0,0.002,0.0,-0.001,-0.002,-0.002,-0.003,-0.002,-0.003,-0.003,0.004,0.002
469,0.001,0.001,0.001,-0.001,-0.002,-0.003,-0.002,-0.004,-0.003,-0.003,-0.004,0.003,0.0
470,0.002,0.001,0.0,-0.001,-0.002,-0.004,-0.003,-0.005,-0.005,-0.004,-0.005,0.003,0.0
471,0.003,0.001,0.001,-0.001,0.0,-0.003,-0.003,-0.005,-0.005,-0.004,-0.006,0.003,0.002
472,0.003,0.002,0.001,0.001,0.001,-0.002,-0.002,-0.004,-0.003,-0.004,-0.003,0.004,0.004
473,0.002,0.002,0.001,0.0,0.001,-0.001,-0.001,-0.002,-0.002,-0.003,-0.002,0.005,0.005
474,0.0,0.001,0.0,0.0,0.0,-0.001,-0.002,-0.002,-0.002,-0.003,-0.002,0.005,0.003
475,0.001,0.001,0.0,0.0,-0.001,-0.001,-0.002,-0.003,-0.002,-0.002,-0.003,0.006,0.002
476,0.003,0.002,0.001,0.001,0.001,-0.001,-0.001,-0.003,-0.001,-0.002,-0.002,0.007,0.004
477,0.005,0.004,0.003,0.002,0.002,0.0,0.0,-0.002,0.0,-0.001,-0.002,0.009,0.007
478,0.005,0.004,0.004,0.002,0.003,0.001,0.001,0.0,0.001,0.0,-0.001,0.009,0.008
479,0.005,0.004,0.004,0.002,0.002,0.001,0.002,0.001,0.002,0.001,-0.001,0.009,0.007
480,0.003,0.001,0.001,0.0,0.0,-0.001,-0.001,-0.001,-0.001,-0.002,-0.004,0.005,0.002
481,0.0,-0.002,-0.003,-0.003,-0.003,-0.005,-0.006,-0.006,-0.005,-0.006,-0.007,0.001,-0.003
482,-0.002,-0.003,-0.004,-0.005,-0.006,-0.008,-0.008,-0.009,-0.008,-0.008,-0.01,-0.002,-0.005
483,-0.003,-0.005,-0.006,-0.006,-0.007,-0.01,-0.008,-0.01,-0.009,-0.01,-0.011,-0.002,-0.005
484,-0.002,-0.004,-0.005,-0.005,-0.006,-0.008,-0.006,-0.008,-0.007,-0.008,-0.009,0.0,-0.003
485,0.0,-0.002,-0.002,-0.002,-0.003,-0.005,-0.004,-0.006,-0.005,-0.006,-0.006,0.003,0.001
486,0.002,0.0,-0.001,-0.002,-0.002,-0.004,-0.003,-0.005,-0.004,-0.005,-0.005,0.004,0.002
487,0.0,-0.001,-0.001,-0.003,-0.004,-0.006,-0.005,-0.006,-0.006,-0.006,-0.006,0.002,0.0
488,-0.002,-0.002,-0.003,-0.004,-0.005,-0.008,-0.007,-0.008,-0.008,-0.008,-0.008,0.0,-0.002
489,-0.003,-0.003,-0.004,-0.004,-0.006,-0.008,-0.008,-0.008,-0.008,-0.008,-0.009,0.0,-0.002
490,-0.001,-0.002,-0.003,-0.003,-0.005,-0.006,-0.006,-0.007,-0.006,-0.006,-0.008,0.002,0.0
491,0.0,-0.001,-0.002,-0.002,-0.004,-0.006,-0.005,-0.005,-0.005,-0.005,-0.006,0.003,0.0
492,0.0,0.0,-0.002,-0.002,-0.004,-0.005,-0.004,-0.005,-0.005,-0.006,-0.005,0.002,-0.002
493,0.001,-0.001,-0.002,-0.002,-0.004,-0.005,-0.004,-0.005,-0.006,-0.006,-0.007,0.001,-0.003
494,0.0,-0.001,-0.003,-0.003,-0.005,-0.005,-0.005,-0.006,-0.006,-0.006,-0.007,0.002,-0.002
495,0.002,0.001,-0.001,-0.002,-0.003,-0.004,-0.004,-0.004,-0.004,-0.004,-0.005,0.004,0.0
496,0.003,0.002,0.001,-0.001,-0.002,-0.003,-0.003,-0.003,-0.004,-0.004,-0.004,0.004,0.002
497,0.003,0.003,0.001,0.001,-0.002,-0.003,-0.002,-0.004,-0.003,-0.004,-0.005,0.004,0.001
498,0.002,0.002,0.001,0.001,-0.002,-0.003,-0.002,-0.005,-0.003,-0.004,-0.006,0.004,0.002
499,0.002,0.001,0.001,0.0,-0.003,-0.004,-0.003,-0.006,-0.003,-0.004,-0.006,0.003,0.002
500,0.002,0.001,0.001,-0.001,-0.004,-0.004,-0.004,-0.006,-0.005,-0.004,-0.007,0.002,0.002
501,0.001,0.001,0.001,-0.002,-0.003,-0.004,-0.005,-0.006,-0.005,-0.005,-0.007,0.003,0.003
502,0.0,0.0,0.0,-0.002,-0.002,-0.003,-0.004,-0.004,-0.004,-0.005,-0.006,0.004,0.003
503,-0.001,0.0,-0.002,-0.001,0.0,-0.002,-0.003,-0.002,-0.003,-0.004,-0.005,0.004,0.002
504,0.0,0.0,-0.002,0.0,-0.001,-0.001,-0.002,-0.002,-0.002,-0.003,-0.004,0.004,0.002
505,0.001,-0.001,-0.001,-0.001,-0.001,-0.001,-0.002,-0.003,-0.002,-0.002,-0.003,0.004,0.002
506,0.002,0.0,0.0,0.0,-0.001,-0.002,-0.001,-0.002,-0.001,0.0,-0.002,0.006,0.003
507,0.001,0.0,-0.001,-0.001,-0.002,-0.003,-0.003,-0.004,-0.002,-0.001,-0.003,0.005,0.002
508,0.002,0.001,-0.001,-0.001,-0.002,-0.004,-0.003,-0.004,-0.003,-0.002,-0.003,0.005,0.001
509,0.002,0.002,0.0,-0.001,-0.002,-0.003,-0.004,-0.005,-0.004,-0.003,-0.004,0.004,-0.001
510,0.002,0.003,0.001,0.0,-0.002,-0.003,-0.003,-0.005,-0.004,-0.004,-0.004,0.004,-0.002
511,0.001,0.003,0.001,0.001,-0.002,-0.002,-0.003,-0.004,-0.004,-0.004,-0.005,0.005,-0.001
512,-0.001,0.001,0.0,-0.002,-0.004,-0.004,-0.004,-0.005,-0.005,-0.006,-0.006,0.003,0.0
513,0.0,-0.001,-0.001,-0.002,-0.003,-0.005,-0.004,-0.006,-0.004,-0.005,-0.006,0.002,0.0
514,0.001,-0.001,-0.001,-0.002,-0.003,-0.004,-0.003,-0.005,-0.004,-0.004,-0.006,0.002,0.001
515,0.0,-0.001,-0.002,-0.002,-0.003,-0.004,-0.004,-0.005,-0.004,-0.004,-0.005,0.003,0.001
516,0.001,0.0,-0.001,-0.002,-0.002,-0.003,-0.003,-0.003,-0.004,-0.003,-0.005,0.004,0.003
517,0.001,0.0,-0.001,-0.002,-0.003,-0.005,-0.004,-0.005,-0.006,-0.004,-0.006,0.003,0.002
518,0.002,0.001,-0.001,-0.001,-0.002,-0.004,-0.003,-0.004,-0.004,-0.003,-0.005,0.003,0.003
519,0.001,0.0,-0.001,-0.001,-0.002,-0.003,-0.003,-0.003,-0.003,-0.002,-0.004,0.004,0.002
520,0.001,0.001,0.0,0.0,-0.001,-0.002,-0.001,-0.002,-0.001,-0.001,-0.002,0.005,0.003
521,0.001,0.0,-0.001,0.0,-0.001,-0.002,-0.002,-0.002,-0.002,-0.002,-0.004,0.004,0.002
522,0.001,-0.001,-0.002,-0.001,-0.002,-0.003,-0.003,-0.003,-0.003,-0.003,-0.005,0.002,0.002
523,0.0,-0.001,-0.002,-0.002,-0.003,-0.004,-0.004,-0.004,-0.004,-0.004,-0.005,0.003,0.002
524,0.001,0.001,0.0,0.0,-0.001,-0.002,-0.001,-0.002,-0.002,-0.001,-0.001,0.005,0.003
525,0.002,0.002,0.0,0.0,-0.001,-0.002,-0.001,-0.002,-0.002,-0.001,-0.002,0.006,0.003
526,0.003,0.001,0.0,0.0,-0.002,-0.003,-0.002,-0.003,-0.002,-0.002,-0.003,0.004,0.001
527,0.002,0.0,-0.001,-0.001,-0.003,-0.003,-0.003,-0.003,-0.002,-0.002,-0.003,0.004,0.001
528,0.0,0.0,-0.001,-0.002,-0.003,-0.003,-0.002,-0.003,-0.002,-0.002,-0.002,0.004,0.002
529,-0.001,0.0,-0.001,-0.002,-0.002,-0.003,-0.001,-0.003,-0.002,-0.002,-0.002,0.004,0.002
530,0.001,0.0,-0.001,-0.002,-0.002,-0.003,-0.002,-0.004,-0.003,-0.003,-0.004,0.004,0.0
531,0.002,0.001,-0.001,-0.001,-0.003,-0.004,-0.003,-0.005,-0.003,-0.003,-0.005,0.003,0.0
532,0.003,0.002,0.001,-0.001,-0.002,-0.002,-0.002,-0.003,-0.002,-0.001,-0.003,0.004,0.001
533,0.002,0.003,0.0,0.0,-0.002,-0.002,-0.001,-0.003,-0.001,-0.001,-0.002,0.005,0.002
534,0.001,0.002,0.0,0.001,-0.001,-0.001,-0.001,-0.001,0.0,0.001,0.0,0.006,0.003
535,0.0,0.001,-0.001,0.0,-0.002,-0.001,-0.001,-0.002,-0.001,0.0,-0.001,0.005,0.002
536,0.0,0.0,-0.001,-0.002,-0.002,-0.002,-0.002,-0.002,-0.001,-0.001,-0.001,0.005,0.001
537,-0.001,-0.001,-0.001,-0.002,-0.002,-0.003,-0.003,-0.004,-0.002,-0.003,-0.003,0.004,0.0
538,-0.002,-0.001,-0.001,-0.002,-0.003,-0.003,-0.003,-0.004,-0.003,-0.003,-0.003,0.003,-0.001
539,-0.001,-0.001,-0.001,-0.001,-0.002,-0.002,-0.003,-0.003,-0.002,-0.002,-0.003,0.004,0.001
540,0.0,0.0,-0.001,-0.001,-0.001,-0.001,-0.001,-0.001,0.0,-0.001,-0.002,0.005,0.002
541,-0.001,-0.001,-0.001,-0.002,-0.001,-0.002,-0.001,-0.001,-0.001,-0.001,-0.003,0.005,0.003
542,-0.001,-0.001,-0.001,-0.002,-0.001,-0.003,-0.002,-0.004,-0.003,-0.003,-0.004,0.003,0.004
543,-0.001,0.0,0.0,-0.001,-0.002,-0.003,-0.003,-0.004,-0.003,-0.004,-0.004,0.003,0.004
544,0.002,0.002,0.002,0.001,0.0,-0.002,-0.002,-0.002,-0.001,-0.002,-0.003,0.004,0.003
545,0.005,0.003,0.004,0.002,0.001,0.0,0.0,-0.001,0.0,0.0,-0.001,0.006,0.003
546,0.006,0.004,0.004,0.003,0.002,0.001,0.001,0.0,0.001,0.002,0.001,0.006,0.004
547,0.004,0.003,0.003,0.002,0.002,0.001,0.002,0.0,0.002,0.002,0.001,0.006,0.005
548,0.003,0.002,0.002,0.003,0.001,0.0,0.001,0.0,0.001,0.003,0.001,0.006,0.003
549,0.003,0.002,0.003,0.002,0.001,0.0,0.0,-0.001,0.001,0.002,0.0,0.006,0.002
550,0.003,0.0,0.001,0.001,0.0,-0.001,0.0,-0.002,-0.001,0.001,-0.002,0.006,0.002
551,0.004,0.0,0.001,0.0,0.0,-0.001,0.001,-0.001,-0.001,0.001,-0.001,0.006,0.003
552,0.003,0.001,0.002,0.0,0.0,0.0,0.0,-0.001,0.0,0.0,-0.001,0.006,0.001
553,0.003,0.002,0.003,0.001,-0.001,0.0,-0.001,0.0,0.0,0.0,-0.001,0.006,0.001
554,0.005,0.005,0.004,0.003,0.002,0.003,0.002,0.001,0.002,0.002,0.001,0.009,0.003
555,0.008,0.007,0.006,0.006,0.004,0.005,0.005,0.004,0.005,0.005,0.004,0.009,0.006
556,0.007,0.006,0.005,0.006,0.004,0.005,0.006,0.003,0.004,0.004,0.003,0.008,0.006
557,0.004,0.004,0.002,0.003,0.001,0.002,0.003,0.001,0.002,0.001,0.001,0.007,0.006
558,0.003,0.001,0.001,0.0,-0.001,0.0,-0.001,-0.001,-0.001,0.0,-0.001,0.006,0.007
559,0.005,0.003,0.002,0.001,0.001,0.001,-0.001,0.0,0.0,0.001,0.0,0.008,0.008
560,0.007,0.005,0.005,0.003,0.003,0.002,0.0,0.001,0.002,0.002,0.001,0.009,0.007
561,0.006,0.004,0.004,0.002,0.002,0.001,0.001,0.0,0.001,0.001,0.001,0.009,0.005
562,0.006,0.005,0.004,0.002,0.001,0.001,0.002,0.001,0.001,0.001,0.001,0.008,0.004
563,0.004,0.003,0.001,-0.001,0.0,-0.002,0.0,-0.001,-0.001,0.0,-0.001,0.007,0.001
564,0.004,0.002,0.001,0.001,0.001,0.0,0.001,0.001,0.0,0.002,0.001,0.008,0.002
565,0.003,0.002,0.002,0.001,0.0,0.0,0.002,0.001,0.001,0.002,0.0,0.008,0.001
566,0.005,0.003,0.003,0.003,0.002,0.002,0.002,0.001,0.0,0.001,0.001,0.009,0.002
567,0.004,0.003,0.002,0.001,0.0,0.0,-0.001,-0.002,-0.001,-0.001,-0.002,0.007,0.002
568,0.0,-0.002,-0.002,-0.002,-0.001,-0.003,-0.005,-0.005,-0.004,-0.004,-0.004,0.003,0.001
569,0.0,-0.002,-0.002,-0.001,-0.001,-0.003,-0.004,-0.004,-0.003,-0.004,-0.002,0.003,0.003
570,0.002,0.001,0.001,0.001,0.0,-0.001,0.0,-0.002,0.0,-0.001,0.001,0.006,0.005
571,0.005,0.004,0.003,0.002,0.001,0.001,0.002,0.0,0.001,0.002,0.002,0.008,0.007
572,0.006,0.005,0.006,0.003,0.002,0.002,0.003,0.002,0.003,0.003,0.002,0.008,0.007
573,0.006,0.005,0.005,0.003,0.002,0.003,0.003,0.002,0.004,0.003,0.002,0.008,0.006
574,0.006,0.004,0.004,0.002,0.001,0.001,0.002,0.001,0.002,0.002,0.001,0.007,0.005
575,0.004,0.003,0.001,0.0,-0.002,-0.002,-0.002,-0.002,-0.002,0.001,-0.002,0.004,0.002
576,0.003,0.001,0.001,-0.002,-0.004,-0.003,-0.004,-0.003,-0.003,-0.001,-0.004,0.004,0.001
577,0.005,0.002,0.003,-0.001,-0.002,-0.002,-0.004,-0.003,-0.002,-0.001,-0.003,0.006,0.004
578,0.007,0.003,0.005,0.001,0.0,0.0,-0.001,-0.001,0.0,0.0,-0.001,0.008,0.005
579,0.008,0.005,0.006,0.003,0.002,0.001,0.001,0.002,0.003,0.001,0.002,0.011,0.006
580,0.009,0.006,0.007,0.006,0.004,0.004,0.005,0.004,0.005,0.005,0.005,0.012,0.008
581,0.008,0.005,0.006,0.005,0.004,0.003,0.005,0.003,0.005,0.004,0.004,0.012,0.008
582,0.006,0.005,0.006,0.004,0.003,0.003,0.005,0.003,0.004,0.005,0.003,0.01,0.007
583,0.006,0.004,0.005,0.003,0.001,0.001,0.003,0.002,0.002,0.003,0.002,0.008,0.005
584,0.006,0.005,0.003,0.003,0.001,0.002,0.001,0.003,0.001,0.002,0.002,0.009,0.003
585,0.008,0.006,0.004,0.004,0.002,0.004,0.002,0.003,0.004,0.003,0.003,0.01,0.005
586,0.008,0.006,0.005,0.004,0.002,0.003,0.001,0.001,0.004,0.002,0.002,0.009,0.008
587,0.006,0.004,0.004,0.002,0.0,0.0,-0.001,-0.003,0.001,-0.001,-0.002,0.004,0.006
588,0.004,0.003,0.002,0.001,-0.001,-0.003,-0.003,-0.005,-0.002,-0.004,-0.004,0.002,0.002
589,0.004,0.004,0.003,0.0,-0.002,-0.002,-0.001,-0.003,-0.002,-0.004,-0.002,0.005,0.001
590,0.008,0.007,0.006,0.004,0.001,0.002,0.002,0.001,0.0,0.0,0.001,0.009,0.004
591,0.008,0.007,0.008,0.005,0.002,0.003,0.003,0.001,0.001,0.002,0.002,0.011,0.006
592,0.01,0.01,0.008,0.008,0.006,0.005,0.005,0.004,0.004,0.006,0.004,0.012,0.01
593,0.01,0.01,0.007,0.008,0.006,0.007,0.005,0.004,0.007,0.007,0.005,0.01,0.011
594,0.009,0.008,0.006,0.006,0.005,0.007,0.005,0.005,0.007,0.007,0.006,0.01,0.008
595,0.007,0.006,0.005,0.004,0.003,0.004,0.003,0.002,0.004,0.004,0.004,0.009,0.004
596,0.006,0.004,0.004,0.001,0.0,0.0,0.002,0.0,0.0,0.0,0.001,0.008,0.0
597,0.004,0.002,0.002,0.0,-0.001,-0.002,-0.001,-0.002,-0.002,-0.004,-0.002,0.005,-0.001
598,0.004,0.001,0.003,0.0,0.001,-0.001,0.001,-0.003,-0.001,-0.003,-0.003,0.005,0.001
599,0.004,0.0,0.001,0.0,0.0,0.001,0.0,-0.002,0.0,-0.001,-0.002,0.004,0.002
600,0.007,0.002,0.001,0.0,0.001,0.001,0.0,0.001,0.001,0.0,0.0,0.004,0.004
601,0.009,0.005,0.003,0.0,0.001,0.0,0.001,0.003,0.002,0.001,0.001,0.006,0.005
602,0.011,0.008,0.006,0.002,0.003,0.001,0.003,0.002,0.004,0.002,0.002,0.008,0.007
603,0.011,0.01,0.009,0.005,0.005,0.003,0.004,0.001,0.005,0.002,0.004,0.01,0.01
604,0.012,0.01,0.009,0.007,0.007,0.004,0.005,0.003,0.005,0.004,0.005,0.012,0.013
605,0.009,0.008,0.005,0.005,0.005,0.001,0.004,0.003,0.003,0.004,0.004,0.01,0.009
606,0.006,0.004,0.002,0.0,0.003,0.0,0.002,0.003,0.001,0.002,0.001,0.007,0.004
607,0.002,0.001,-0.001,-0.005,-0.002,-0.003,-0.002,-0.001,-0.002,-0.002,-0.004,0.004,0.0
608,0.002,0.002,0.001,-0.003,0.0,-0.002,-0.001,-0.001,-0.001,-0.001,-0.003,0.005,0.004
609,0.001,0.001,0.002,-0.001,0.0,-0.001,0.0,-0.001,0.001,0.001,0.0,0.005,0.005
610,0.002,0.001,0.001,-0.002,-0.001,0.0,-0.001,-0.003,0.0,0.0,0.0,0.004,0.002
611,0.002,0.0,-0.002,-0.005,-0.003,-0.002,-0.003,-0.005,-0.002,-0.003,-0.002,0.001,0.0
612,0.006,0.002,0.0,-0.002,-0.002,0.0,-0.002,-0.003,-0.002,-0.004,-0.004,0.002,0.003
613,0.008,0.004,0.003,0.0,0.0,0.001,0.0,-0.001,0.0,-0.003,-0.003,0.003,0.005
614,0.006,0.004,0.002,0.0,-0.001,-0.001,-0.001,-0.002,0.0,-0.002,-0.003,0.004,0.005
615,0.006,0.003,0.001,-0.001,-0.001,-0.003,-0.003,-0.004,-0.001,-0.002,-0.003,0.004,0.004
616,0.006,0.002,0.001,-0.001,-0.001,-0.003,-0.002,-0.004,-0.001,-0.001,-0.001,0.006,0.004
617,0.005,0.002,0.002,0.001,0.001,-0.001,0.0,-0.002,0.0,0.0,0.001,0.008,0.006
618,0.005,0.003,0.002,0.0,0.003,0.0,0.001,0.0,0.002,0.002,0.002,0.009,0.009
619,0.006,0.004,0.005,0.001,0.003,0.001,0.002,-0.001,0.002,0.001,0.0,0.007,0.009
620,0.005,0.004,0.007,0.0,0.0,-0.001,-0.002,-0.004,-0.002,-0.003,-0.004,0.002,0.003
621,0.003,0.004,0.007,0.0,-0.001,-0.003,-0.003,-0.005,-0.004,-0.005,-0.005,0.001,-0.001
622,0.002,0.004,0.005,0.001,0.0,-0.003,-0.002,-0.003,-0.002,-0.003,-0.004,0.003,0.001
623,0.005,0.007,0.005,0.004,0.005,0.001,0.003,0.002,0.003,0.003,0.002,0.01,0.01
624,0.009,0.009,0.006,0.005,0.007,0.005,0.004,0.004,0.005,0.003,0.005,0.012,0.014
625,0.01,0.011,0.009,0.006,0.009,0.008,0.006,0.005,0.006,0.004,0.006,0.013,0.013
626,0.01,0.011,0.01,0.006,0.01,0.008,0.007,0.006,0.007,0.006,0.006,0.012,0.01
627,0.006,0.008,0.008,0.005,0.008,0.006,0.007,0.006,0.008,0.008,0.007,0.011,0.009
628,0.002,0.003,0.002,0.001,0.004,0.003,0.005,0.004,0.006,0.007,0.005,0.009,0.007
629,0.003,0.003,0.003,0.001,0.003,0.004,0.005,0.003,0.004,0.005,0.005,0.008,0.006
630,0.006,0.005,0.006,0.003,0.004,0.004,0.005,0.003,0.004,0.003,0.005,0.009,0.007
631,0.009,0.009,0.009,0.007,0.006,0.006,0.005,0.005,0.006,0.004,0.006,0.012,0.011
632,0.009,0.006,0.006,0.005,0.004,0.005,0.003,0.004,0.004,0.004,0.004,0.012,0.009
633,0.008,0.005,0.004,0.004,0.002,0.003,0.002,0.002,0.003,0.002,0.002,0.009,0.007
634,0.007,0.004,0.001,0.0,-0.002,-0.001,-0.002,-0.002,-0.001,-0.002,-0.001,0.004,0.002
635,0.004,0.003,0.0,-0.002,-0.003,-0.003,-0.005,-0.004,-0.001,-0.003,-0.003,0.002,-0.001
636,0.003,0.003,0.002,-0.001,-0.002,-0.003,-0.004,-0.003,-0.002,-0.003,-0.003,0.003,0.0
637,0.004,0.005,0.004,-0.001,-0.002,-0.002,-0.003,-0.003,-0.004,-0.004,-0.003,0.005,0.003
638,0.006,0.007,0.005,0.001,0.001,-0.001,-0.001,-0.003,-0.003,-0.004,-0.003,0.005,0.006
639,0.007,0.007,0.005,0.0,0.001,0.0,-0.001,-0.003,-0.002,-0.004,-0.002,0.006,0.007
640,0.007,0.007,0.006,0.002,0.001,0.0,-0.002,-0.002,-0.001,-0.004,-0.001,0.007,0.009
641,0.011,0.008,0.008,0.001,0.0,-0.001,-0.002,-0.002,-0.001,-0.003,-0.002,0.008,0.01
642,0.011,0.009,0.007,0.001,-0.002,-0.002,-0.002,-0.002,-0.003,-0.003,-0.002,0.007,0.007
643,0.008,0.005,0.003,-0.002,-0.003,-0.003,-0.002,-0.003,-0.004,-0.003,-0.003,0.006,0.004
644,0.004,0.002,0.001,-0.003,-0.003,-0.002,-0.002,-0.002,-0.002,-0.003,-0.002,0.007,0.003
645,0.002,0.001,0.001,-0.002,0.0,0.0,0.0,-0.001,0.0,0.0,0.0,0.008,0.002
646,0.002,0.001,0.002,-0.002,0.001,0.0,0.001,0.0,0.002,0.001,0.001,0.007,0.002
647,0.003,0.001,0.003,0.0,0.002,0.002,0.002,0.001,0.002,0.002,0.0,0.005,0.003
648,0.005,0.005,0.005,0.004,0.005,0.004,0.003,0.004,0.003,0.002,0.0,0.007,0.007
649,0.004,0.006,0.004,0.004,0.003,0.003,0.003,0.003,0.001,0.001,0.0,0.007,0.007
650,0.006,0.007,0.004,0.003,0.002,0.002,0.002,0.001,0.001,0.001,0.001,0.008,0.009
651,0.007,0.006,0.004,0.001,0.0,0.001,0.0,-0.001,0.0,-0.001,0.0,0.008,0.007
652,0.007,0.006,0.004,0.0,-0.001,-0.001,0.0,-0.002,0.001,-0.001,-0.001,0.009,0.007
653,0.006,0.005,0.002,0.001,0.0,-0.001,0.0,0.0,0.002,0.0,0.001,0.009,0.008
654,0.009,0.005,0.004,0.004,0.003,0.002,0.003,0.003,0.004,0.003,0.004,0.009,0.009
655,0.007,0.006,0.004,0.003,0.004,0.002,0.003,0.003,0.003,0.002,0.003,0.01,0.009
656,0.004,0.003,0.002,0.0,0.001,-0.001,0.0,-0.001,-0.001,-0.001,-0.001,0.007,0.006
657,0.001,0.001,0.002,-0.001,-0.001,-0.002,-0.002,-0.004,-0.005,-0.004,-0.004,0.004,0.002
658,0.001,0.002,0.002,0.0,-0.001,0.0,-0.001,-0.003,-0.003,-0.004,-0.003,0.003,0.002
659,0.004,0.006,0.002,0.002,0.001,0.003,0.003,0.001,0.002,0.0,0.001,0.004,0.006
660,0.006,0.008,0.004,0.003,0.003,0.004,0.006,0.003,0.005,0.002,0.004,0.009,0.008
661,0.008,0.009,0.007,0.005,0.004,0.004,0.006,0.003,0.005,0.004,0.006,0.011,0.008
662,0.01,0.008,0.007,0.007,0.005,0.004,0.006,0.003,0.006,0.004,0.004,0.011,0.006
663,0.007,0.005,0.005,0.005,0.003,0.002,0.004,0.002,0.004,0.002,0.001,0.008,0.007
664,0.003,0.003,0.001,0.0,0.001,-0.001,0.0,-0.002,0.0,-0.001,-0.003,0.005,0.004
665,0.0,0.0,-0.001,-0.003,-0.003,-0.004,-0.005,-0.005,-0.005,-0.005,-0.006,0.001,0.0
666,0.003,0.001,-0.001,-0.003,-0.002,-0.004,-0.005,-0.006,-0.005,-0.004,-0.005,0.0,-0.002
667,0.005,0.001,0.001,-0.002,0.0,-0.002,-0.003,-0.003,-0.002,-0.003,-0.002,0.002,-0.001
668,0.001,-0.001,-0.002,-0.003,-0.002,-0.004,-0.004,-0.003,-0.002,-0.004,-0.003,0.001,-0.001
669,-0.003,-0.003,-0.004,-0.005,-0.005,-0.006,-0.005,-0.005,-0.002,-0.004,-0.005,-0.001,-0.002
670,-0.003,-0.004,-0.005,-0.004,-0.006,-0.005,-0.006,-0.007,-0.003,-0.004,-0.006,-0.002,-0.003
671,0.0,-0.002,-0.003,0.0,-0.003,-0.001,-0.004,-0.005,-0.001,-0.003,-0.005,0.0,-0.002
672,0.001,0.001,-0.001,0.002,0.0,0.002,-0.002,-0.001,0.0,-0.002,-0.002,0.004,0.001
673,0.003,0.003,0.003,0.002,0.001,0.003,0.002,0.001,0.002,0.0,0.001,0.008,0.004
674,0.005,0.005,0.004,0.001,0.0,0.003,0.002,-0.001,0.0,-0.001,0.0,0.007,0.005
675,0.005,0.005,0.004,0.0,-0.002,0.001,-0.001,-0.003,-0.001,-0.003,-0.003,0.004,0.004
676,0.005,0.004,0.002,0.0,-0.002,-0.002,-0.004,-0.004,-0.004,-0.005,-0.007,0.001,0.001
677,0.008,0.005,0.003,0.0,0.0,-0.003,-0.004,-0.004,-0.005,-0.004,-0.005,0.002,0.002
678,0.011,0.005,0.003,0.002,0.002,-0.001,-0.001,-0.001,-0.003,-0.001,-0.001,0.004,0.005
679,0.008,0.004,0.003,0.0,-0.001,-0.002,-0.002,-0.003,-0.004,-0.003,-0.002,0.004,0.002
680,0.0,0.0,-0.001,-0.007,-0.007,-0.006,-0.006,-0.007,-0.007,-0.009,-0.007,-0.001,-0.006
681,-0.002,-0.002,-0.001,-0.006,-0.007,-0.006,-0.006,-0.008,-0.007,-0.009,-0.008,-0.002,-0.007
682,0.001,0.0,0.001,-0.002,-0.002,-0.004,-0.003,-0.003,-0.003,-0.004,-0.005,0.002,-0.001
683,0.006,0.005,0.004,0.003,0.004,0.001,0.001,0.002,0.002,0.002,0.002,0.008,0.005
684,0.007,0.008,0.006,0.005,0.007,0.004,0.002,0.002,0.005,0.004,0.005,0.01,0.005
685,0.007,0.007,0.006,0.006,0.006,0.004,0.001,0.001,0.004,0.003,0.004,0.009,0.004
686,0.005,0.006,0.005,0.005,0.004,0.001,0.0,0.001,0.003,0.001,0.002,0.008,0.004
687,0.004,0.005,0.005,0.003,0.002,0.0,0.001,0.001,0.003,0.0,0.0,0.007,0.004
688,0.003,0.003,0.004,0.001,0.002,-0.001,0.001,0.0,0.003,0.0,-0.002,0.005,0.002
689,0.001,0.0,0.001,-0.002,0.001,-0.003,-0.001,-0.002,-0.001,-0.003,-0.004,0.004,0.0
690,0.002,0.0,0.0,-0.003,0.002,-0.002,-0.001,-0.002,-0.001,-0.003,-0.002,0.006,0.002
691,0.003,0.0,0.001,-0.003,0.001,0.001,0.001,-0.001,-0.001,-0.002,0.002,0.008,0.005
692,0.005,0.004,0.005,0.003,0.004,0.005,0.003,0.002,0.004,0.003,0.007,0.01,0.008
693,0.007,0.006,0.007,0.005,0.006,0.006,0.005,0.004,0.005,0.005,0.008,0.011,0.009
694,0.008,0.007,0.007,0.005,0.007,0.004,0.004,0.004,0.005,0.004,0.006,0.011,0.008
695,0.008,0.005,0.006,0.004,0.006,0.002,0.004,0.002,0.003,0.002,0.004,0.009,0.007
696,0.005,0.004,0.004,0.002,0.001,-0.001,0.002,-0.001,0.0,-0.001,-0.001,0.005,0.001
697,0.004,0.004,0.002,-0.001,-0.002,-0.004,-0.002,-0.005,-0.004,-0.005,-0.004,0.002,-0.001
698,0.005,0.003,0.002,-0.001,-0.002,-0.004,-0.003,-0.004,-0.005,-0.006,-0.005,0.001,0.0
699,0.009,0.006,0.005,0.002,0.002,0.001,0.0,0.0,0.0,-0.002,0.0,0.004,0.004
700,0.009,0.007,0.006,0.004,0.004,0.002,0.002,0.002,0.001,0.0,0.0,0.005,0.004
701,0.006,0.007,0.004,0.001,0.002,-0.002,-0.001,-0.001,-0.001,-0.003,-0.001,0.005,0.001
702,0.005,0.005,0.001,-0.002,0.0,-0.002,-0.002,-0.002,-0.003,-0.004,-0.003,0.005,0.0
703,0.004,0.002,0.0,-0.002,0.0,0.0,-0.002,-0.003,-0.003,-0.005,-0.003,0.005,0.001
704,0.003,0.001,0.001,-0.001,-0.001,0.001,-0.002,-0.003,-0.002,-0.003,-0.003,0.004,0.002
705,0.001,0.002,0.001,-0.002,-0.002,-0.003,-0.004,-0.003,-0.003,-0.005,-0.003,0.003,-0.001
706,0.004,0.004,0.002,-0.002,-0.002,-0.002,-0.003,0.0,-0.003,-0.003,-0.001,0.005,-0.002
707,0.006,0.006,0.004,0.001,0.0,0.002,0.0,0.003,0.0,0.002,0.0,0.007,0.001
708,0.005,0.005,0.006,0.003,0.003,0.003,0.001,0.004,0.003,0.003,0.002,0.009,0.004
709,0.004,0.007,0.007,0.003,0.005,0.003,0.001,0.004,0.004,0.001,0.002,0.009,0.007
710,0.006,0.007,0.006,0.003,0.006,0.004,0.002,0.003,0.004,-0.001,0.001,0.009,0.008
711,0.005,0.006,0.004,0.003,0.004,0.003,0.002,0.002,0.003,0.0,-0.001,0.009,0.006
712,0.003,0.004,0.002,0.001,0.004,0.002,0.0,0.001,0.002,0.0,-0.001,0.007,0.002
713,0.002,0.003,0.001,0.0,0.001,0.001,-0.001,0.0,0.001,0.0,-0.001,0.004,0.001
714,0.004,0.004,0.003,0.001,0.003,0.002,0.001,0.001,0.002,0.002,0.002,0.005,0.004
715,0.008,0.006,0.004,0.003,0.004,0.001,0.004,0.002,0.003,0.003,0.004,0.009,0.007
716,0.008,0.006,0.003,0.003,0.002,0.001,0.003,0.002,0.003,0.003,0.003,0.01,0.008
717,0.005,0.002,0.0,-0.001,-0.003,-0.001,-0.002,-0.001,0.0,0.0,0.0,0.005,0.003
718,0.005,0.001,-0.001,-0.004,-0.005,-0.003,-0.006,-0.005,-0.004,-0.004,-0.004,0.003,-0.001
719,0.003,0.003,-0.001,-0.004,-0.004,-0.004,-0.004,-0.005,-0.003,-0.003,-0.004,0.004,0.001
720,0.0,0.003,0.0,-0.003,-0.002,-0.002,-0.002,-0.003,-0.001,-0.001,-0.002,0.004,0.003
721,0.0,0.0,0.001,0.0,-0.001,0.001,0.001,0.002,0.001,0.001,0.001,0.005,0.003
722,0.002,-0.001,-0.001,0.001,-0.003,-0.001,0.0,0.003,-0.001,-0.002,0.001,0.004,0.0
723,0.004,0.002,0.001,0.001,-0.003,-0.002,0.0,0.002,-0.001,-0.002,-0.001,0.004,-0.002
724,0.003,0.004,0.003,0.0,0.0,-0.001,0.001,0.001,0.0,-0.001,0.001,0.004,-0.001
725,0.005,0.004,0.004,0.001,0.001,0.004,0.004,0.005,0.003,0.004,0.005,0.009,0.002
726,0.004,0.003,0.002,0.002,0.0,0.003,0.005,0.005,0.002,0.004,0.005,0.01,0.003
727,0.006,0.005,0.002,0.002,-0.002,0.0,0.002,0.004,0.001,0.001,0.002,0.01,0.001
728,0.002,0.002,0.001,-0.002,-0.005,-0.006,-0.002,-0.003,-0.003,-0.005,-0.003,0.004,0.0
729,0.002,0.0,-0.001,-0.004,-0.005,-0.007,-0.004,-0.005,-0.004,-0.007,-0.004,0.001,-0.001
730,0.004,0.0,0.0,-0.006,-0.004,-0.006,-0.003,-0.006,-0.005,-0.005,-0.004,0.001,0.0
731,0.005,0.002,0.001,-0.006,-0.003,-0.004,-0.004,-0.004,-0.004,-0.003,-0.004,0.001,-0.001
732,0.002,0.004,0.001,-0.004,-0.002,-0.004,-0.004,-0.005,-0.004,-0.002,-0.004,0.001,0.001
733,0.004,0.004,0.002,0.001,0.001,-0.001,0.0,-0.002,0.0,0.001,0.001,0.005,0.005
734,0.002,0.002,0.001,0.001,0.001,0.0,0.0,-0.002,0.0,0.001,0.001,0.006,0.005
735,0.001,-0.004,-0.002,-0.003,-0.005,-0.003,-0.003,-0.005,-0.003,-0.005,-0.003,0.003,0.002
736,-0.001,-0.005,-0.004,-0.007,-0.01,-0.008,-0.007,-0.009,-0.008,-0.009,-0.009,0.0,-0.001
737,0.002,-0.002,-0.004,-0.008,-0.008,-0.009,-0.01,-0.011,-0.008,-0.009,-0.009,-0.001,0.0
738,0.002,0.0,-0.002,-0.006,-0.005,-0.007,-0.009,-0.006,-0.004,-0.006,-0.005,0.001,0.003
739,0.003,0.0,-0.001,-0.006,-0.005,-0.005,-0.006,-0.006,-0.004,-0.004,-0.007,0.002,0.002
740,0.0,0.0,-0.002,-0.008,-0.007,-0.006,-0.006,-0.007,-0.006,-0.006,-0.01,-0.001,-0.002
741,0.0,0.001,0.0,-0.005,-0.005,-0.004,-0.004,-0.008,-0.006,-0.005,-0.008,0.001,0.0
742,0.002,0.004,0.002,0.0,-0.001,0.001,-0.001,-0.003,-0.003,-0.001,-0.002,0.005,0.003
743,0.006,0.005,0.005,0.003,0.001,0.003,0.001,-0.002,0.0,0.001,-0.001,0.006,0.005
744,0.007,0.005,0.004,0.002,0.0,0.001,0.003,-0.001,-0.001,-0.001,-0.003,0.003,0.003
745,0.005,0.002,-0.001,-0.001,-0.004,-0.003,-0.002,-0.004,-0.005,-0.006,-0.005,0.0,-0.002
746,0.0,0.002,-0.005,-0.004,-0.003,-0.004,-0.005,-0.003,-0.006,-0.006,-0.004,-0.001,-0.004
747,-0.002,0.0,-0.004,-0.006,-0.005,-0.004,-0.006,-0.003,-0.005,-0.005,-0.003,-0.003,-0.003
748,-0.001,0.001,0.0,-0.005,-0.004,-0.003,-0.002,-0.003,0.0,0.0,-0.001,0.0,-0.001
749,-0.002,-0.001,-0.001,-0.003,-0.004,-0.003,-0.001,-0.004,0.001,-0.001,-0.001,-0.001,-0.001
750,0.0,0.0,0.0,0.0,0.0,0.0,0.0,0.0,0.0,0.0,0.0,0.0,0.0
190,,,,,,,,,,,,0.149,-0.022
191,,,,,,,,,,,,0.85,0.635
192,,,,,,,,,,,,1.876,1.591
193,,,,,,,,,,,,2.632,2.552
194,,,,,,,,,,,,2.343,2.556
195,,,,,,,,,,,,1.632,1.935
196,,,,,,,,,,,,0.88,1.204
197,,,,,,,,,,,,0.503,0.658
198,,,,,,,,,,,,0.422,0.524
199,,,,,,,,,,,,0.347,0.489
200,,,,,,,,,,,,0.278,0.421
201,,,,,,,,,,,,0.226,0.355
202,,,,,,,,,,,,0.183,0.3
203,,,,,,,,,,,,0.153,0.268
204,,,,,,,,,,,,0.131,0.236
205,,,,,,,,,,,,0.108,0.213
206,,,,,,,,,,,,0.092,0.189
207,,,,,,,,,,,,0.081,0.169
208,,,,,,,,,,,,0.076,0.158
209,,,,,,,,,,,,0.074,0.15
210,,,,,,,,,,,,0.068,0.141
211,,,,,,,,,,,,0.063,0.131
212,,,,,,,,,,,,0.058,0.12
213,,,,,,,,,,,,0.055,0.112
214,,,,,,,,,,,,0.054,0.107
215,,,,,,,,,,,,0.05,0.101
216,,,,,,,,,,,,0.046,0.097
217,,,,,,,,,,,,0.043,0.093
218,,,,,,,,,,,,0.041,0.089
219,,,,,,,,,,,,0.04,0.086
751,,,,,,,,,,,,0.003,0.003
752,,,,,,,,,,,,0.006,0.003
753,,,,,,,,,,,,0.004,0.003
754,,,,,,,,,,,,0.004,0.003
755,,,,,,,,,,,,0.005,0.004
756,,,,,,,,,,,,0.006,0.005
757,,,,,,,,,,,,0.01,0.007
758,,,,,,,,,,,,0.01,0.008
759,,,,,,,,,,,,0.009,0.005
760,,,,,,,,,,,,0.008,0.006
761,,,,,,,,,,,,0.008,0.007
762,,,,,,,,,,,,0.004,0.003
763,,,,,,,,,,,,0.002,0.001
764,,,,,,,,,,,,0.003,0.006
765,,,,,,,,,,,,0.006,0.011
766,,,,,,,,,,,,0.006,0.008
767,,,,,,,,,,,,0.004,0.003
768,,,,,,,,,,,,0.006,0.001
769,,,,,,,,,,,,0.007,0.004
770,,,,,,,,,,,,0.007,0.006
771,,,,,,,,,,,,0.007,0.004
772,,,,,,,,,,,,0.009,0.0
773,,,,,,,,,,,,0.007,0.001
774,,,,,,,,,,,,0.005,0.005
775,,,,,,,,,,,,0.006,0.009
776,,,,,,,,,,,,0.009,0.01
777,,,,,,,,,,,,0.009,0.011
778,,,,,,,,,,,,0.009,0.009
779,,,,,,,,,,,,0.006,0.007
780,,,,,,,,,,,,0.004,0.006
781,,,,,,,,,,,,0.007,0.005
782,,,,,,,,,,,,0.01,0.004
783,,,,,,,,,,,,0.007,0.002
784,,,,,,,,,,,,0.001,-0.004
785,,,,,,,,,,,,-0.002,-0.006
786,,,,,,,,,,,,0.002,-0.003
787,,,,,,,,,,,,0.005,0.002
788,,,,,,,,,,,,0.007,0.004
789,,,,,,,,,,,,0.008,0.005
790,,,,,,,,,,,,0.007,0.007
791,,,,,,,,,,,,0.002,0.008
792,,,,,,,,,,,,-0.001,0.005
793,,,,,,,,,,,,0.001,0.003
794,,,,,,,,,,,,0.003,0.002
795,,,,,,,,,,,,0.004,0.0
796,,,,,,,,,,,,-0.002,-0.003
797,,,,,,,,,,,,-0.001,-0.002
798,,,,,,,,,,,,0.001,-0.005
799,,,,,,,,,,,,0.007,-0.001
800,,,,,,,,,,,,0.007,0.003
801,,,,,,,,,,,,0.003,-0.001
802,,,,,,,,,,,,-0.002,-0.008
803,,,,,,,,,,,,0.002,-0.003
804,,,,,,,,,,,,0.007,0.006
805,,,,,,,,,,,,0.006,0.008
806,,,,,,,,,,,,0.0,0.007
807,,,,,,,,,,,,0.0,0.007
808,,,,,,,,,,,,0.006,0.008
809,,,,,,,,,,,,0.009,0.007
810,,,,,,,,,,,,0.008,0.008
811,,,,,,,,,,,,0.011,0.008
812,,,,,,,,,,,,0.012,0.009
813,,,,,,,,,,,,0.008,0.009
814,,,,,,,,,,,,0.006,0.004
815,,,,,,,,,,,,0.009,0.001
816,,,,,,,,,,,,0.011,0.005
817,,,,,,,,,,,,0.011,0.011
818,,,,,,,,,,,,0.008,0.013
819,,,,,,,,,,,,0.008,0.013
820,,,,,,,,,,,,0.01,0.016
821,,,,,,,,,,,,0.01,0.014
822,,,,,,,,,,,,0.009,0.011
823,,,,,,,,,,,,0.011,0.01
824,,,,,,,,,,,,0.01,0.009
825,,,,,,,,,,,,0.009,0.006
826,,,,,,,,,,,,0.008,0.004
827,,,,,,,,,,,,0.013,0.008
828,,,,,,,,,,,,0.013,0.009
829,,,,,,,,,,,,0.007,0.006
830,,,,,,,,,,,,0.005,0.003
831,,,,,,,,,,,,-0.001,0.0
832,,,,,,,,,,,,-0.005,0.0
833,,,,,,,,,,,,-0.006,0.001
834,,,,,,,,,,,,0.004,0.006
835,,,,,,,,,,,,0.004,0.002
836,,,,,,,,,,,,0.005,0.004
837,,,,,,,,,,,,0.005,0.007
838,,,,,,,,,,,,0.006,0.006
839,,,,,,,,,,,,0.001,-0.001
840,,,,,,,,,,,,0.003,0.001
