,0,1,2,3,4,5,6,7,9,10,12,13,14,15,16,8,11,17
220,0.079,0.011,0.239,0.23,0.163,0.394,1.416,1.29,1.083,0.811,0.227,0.147,0.116,0.067,0.06,1.167,0.552,0.062
221,0.076,0.104,0.223,0.162,0.151,0.418,1.417,1.209,1.052,0.794,0.22,0.143,0.112,0.065,0.057,1.101,0.538,0.06
222,0.073,0.146,0.203,0.136,0.223,0.393,1.388,1.2,1.025,0.777,0.214,0.138,0.107,0.061,0.054,1.088,0.525,0.057
223,0.071,0.102,0.085,0.186,0.233,0.398,1.438,1.226,1.03,0.781,0.211,0.133,0.102,0.058,0.052,1.095,0.519,0.053
224,0.069,0.039,-0.005,0.162,0.18,0.366,1.568,1.242,1.026,0.777,0.206,0.129,0.098,0.056,0.051,1.093,0.513,0.05
225,0.068,-0.046,0.014,0.122,0.133,0.408,1.621,1.245,1.018,0.761,0.199,0.125,0.095,0.055,0.049,1.091,0.503,0.048
226,0.066,0.009,0.063,0.042,0.119,0.569,1.668,1.241,1.009,0.746,0.192,0.12,0.091,0.052,0.046,1.104,0.49,0.047
227,0.063,0.059,0.092,0.0,0.158,0.729,1.734,1.235,0.988,0.722,0.185,0.115,0.087,0.048,0.043,1.09,0.474,0.045
228,0.061,0.067,0.082,0.101,0.172,0.96,1.902,1.21,0.96,0.698,0.176,0.11,0.081,0.045,0.039,1.069,0.456,0.041
229,0.059,0.021,0.093,0.154,0.307,1.066,2.045,1.175,0.925,0.673,0.169,0.106,0.078,0.043,0.038,1.045,0.439,0.038
230,0.059,-0.017,0.074,0.127,0.39,1.128,2.077,1.125,0.885,0.641,0.161,0.101,0.075,0.042,0.037,1.018,0.419,0.037
231,0.057,-0.037,0.074,0.134,0.366,1.161,2.005,1.062,0.837,0.606,0.153,0.096,0.071,0.04,0.036,0.98,0.397,0.036
232,0.056,-0.049,0.095,0.078,0.336,1.123,1.889,0.993,0.786,0.569,0.145,0.09,0.067,0.038,0.035,0.923,0.375,0.035
233,0.055,-0.01,0.103,0.14,0.33,1.282,1.773,0.931,0.736,0.534,0.136,0.085,0.062,0.036,0.032,0.865,0.353,0.033
234,0.055,0.048,0.109,0.154,0.447,1.422,1.705,0.883,0.695,0.505,0.13,0.08,0.059,0.033,0.03,0.814,0.334,0.031
235,0.053,0.133,0.101,0.135,0.556,1.472,1.648,0.839,0.66,0.48,0.123,0.076,0.055,0.031,0.029,0.767,0.317,0.03
236,0.052,0.079,0.112,0.191,0.606,1.52,1.58,0.803,0.63,0.457,0.117,0.072,0.053,0.03,0.027,0.734,0.301,0.03
237,0.051,0.051,0.099,0.221,0.653,1.469,1.502,0.768,0.601,0.434,0.111,0.068,0.05,0.029,0.025,0.705,0.286,0.028
238,0.051,0.041,0.115,0.266,0.651,1.497,1.45,0.736,0.576,0.415,0.105,0.066,0.049,0.028,0.023,0.675,0.274,0.028
239,0.05,0.075,0.114,0.335,0.725,1.586,1.424,0.71,0.555,0.401,0.102,0.063,0.047,0.027,0.023,0.655,0.265,0.027
240,0.048,0.114,0.125,0.419,0.833,1.636,1.415,0.687,0.537,0.39,0.098,0.06,0.044,0.026,0.022,0.636,0.258,0.026
241,0.046,0.052,0.194,0.526,1.008,1.798,1.394,0.671,0.523,0.379,0.095,0.058,0.042,0.025,0.022,0.621,0.25,0.024
242,0.045,0.073,0.245,0.524,1.161,1.936,1.37,0.658,0.512,0.369,0.092,0.057,0.04,0.023,0.02,0.608,0.242,0.022
243,0.044,0.073,0.335,0.517,1.211,1.989,1.354,0.648,0.503,0.362,0.09,0.056,0.04,0.022,0.02,0.594,0.238,0.022
244,0.044,0.103,0.413,0.562,1.23,1.997,1.337,0.637,0.495,0.357,0.09,0.056,0.039,0.022,0.019,0.587,0.236,0.022
245,0.043,0.127,0.435,0.631,1.204,1.939,1.318,0.629,0.488,0.352,0.088,0.055,0.037,0.022,0.018,0.58,0.234,0.022
246,0.041,0.147,0.442,0.738,1.356,2.061,1.308,0.625,0.485,0.349,0.086,0.053,0.036,0.022,0.018,0.574,0.231,0.021
247,0.039,0.219,0.391,0.766,1.505,2.21,1.305,0.622,0.482,0.346,0.083,0.051,0.034,0.02,0.016,0.568,0.228,0.019
248,0.038,0.226,0.386,0.704,1.544,2.263,1.306,0.62,0.48,0.345,0.081,0.05,0.033,0.019,0.016,0.564,0.227,0.018
249,0.037,0.164,0.405,0.686,1.389,2.153,1.305,0.618,0.479,0.344,0.081,0.05,0.032,0.019,0.015,0.564,0.227,0.018
250,0.038,0.15,0.4,0.662,1.193,1.991,1.294,0.618,0.48,0.345,0.082,0.05,0.032,0.02,0.016,0.567,0.227,0.019
251,0.037,0.161,0.433,0.634,1.104,1.875,1.297,0.621,0.483,0.346,0.082,0.05,0.031,0.02,0.016,0.572,0.227,0.019
252,0.035,0.199,0.42,0.673,1.097,1.859,1.306,0.626,0.487,0.348,0.082,0.049,0.03,0.018,0.015,0.572,0.228,0.019
253,0.033,0.197,0.413,0.599,1.104,1.843,1.308,0.629,0.488,0.35,0.082,0.048,0.029,0.017,0.014,0.571,0.229,0.018
254,0.031,0.152,0.341,0.534,1.054,1.761,1.316,0.632,0.491,0.353,0.081,0.048,0.028,0.017,0.014,0.574,0.231,0.018
255,0.029,0.15,0.225,0.477,0.997,1.658,1.32,0.637,0.496,0.358,0.081,0.048,0.028,0.017,0.014,0.581,0.233,0.018
256,0.027,0.116,0.178,0.462,0.933,1.657,1.343,0.646,0.504,0.363,0.082,0.048,0.027,0.017,0.014,0.594,0.236,0.017
257,0.026,0.143,0.184,0.473,0.906,1.735,1.374,0.658,0.514,0.369,0.083,0.048,0.027,0.017,0.014,0.603,0.24,0.016
258,0.025,0.134,0.198,0.453,0.978,1.848,1.406,0.673,0.525,0.375,0.084,0.048,0.028,0.017,0.013,0.616,0.244,0.016
259,0.023,0.129,0.241,0.442,1.099,2.031,1.451,0.689,0.537,0.383,0.085,0.048,0.027,0.017,0.012,0.629,0.248,0.016
260,0.022,0.152,0.259,0.437,1.134,2.028,1.493,0.705,0.549,0.392,0.088,0.05,0.028,0.017,0.012,0.638,0.254,0.017
261,0.022,0.125,0.232,0.421,1.08,1.916,1.532,0.722,0.561,0.401,0.089,0.051,0.028,0.017,0.013,0.652,0.26,0.016
262,0.021,0.099,0.176,0.377,0.899,1.733,1.552,0.739,0.575,0.41,0.091,0.052,0.03,0.016,0.013,0.666,0.265,0.015
263,0.022,0.086,0.115,0.258,0.759,1.548,1.574,0.76,0.592,0.422,0.094,0.053,0.031,0.017,0.013,0.686,0.273,0.015
264,0.022,0.075,0.094,0.24,0.698,1.508,1.598,0.785,0.612,0.437,0.095,0.054,0.031,0.017,0.013,0.71,0.281,0.015
265,0.021,0.076,0.12,0.239,0.623,1.454,1.646,0.811,0.636,0.452,0.099,0.055,0.031,0.017,0.014,0.733,0.289,0.016
266,0.019,0.05,0.12,0.227,0.556,1.467,1.701,0.84,0.658,0.467,0.102,0.057,0.032,0.018,0.014,0.757,0.299,0.015
267,0.018,0.002,0.127,0.274,0.539,1.447,1.732,0.871,0.681,0.484,0.107,0.06,0.033,0.018,0.014,0.785,0.31,0.016
268,0.018,0.007,0.1,0.231,0.472,1.462,1.767,0.903,0.706,0.502,0.111,0.063,0.034,0.019,0.013,0.808,0.322,0.017
269,0.019,0.049,0.088,0.196,0.422,1.338,1.809,0.934,0.731,0.521,0.116,0.065,0.036,0.02,0.014,0.835,0.333,0.018
270,0.019,0.106,0.079,0.18,0.378,1.264,1.868,0.967,0.758,0.541,0.119,0.066,0.037,0.02,0.014,0.863,0.346,0.018
271,0.019,0.103,0.019,0.112,0.348,1.264,1.938,1.003,0.786,0.561,0.123,0.067,0.038,0.02,0.015,0.896,0.357,0.017
272,0.019,0.103,-0.007,0.105,0.365,1.243,1.966,1.04,0.815,0.582,0.127,0.069,0.039,0.021,0.015,0.934,0.37,0.017
273,0.019,0.08,-0.02,0.087,0.352,1.198,2.008,1.076,0.843,0.601,0.131,0.071,0.04,0.021,0.015,0.96,0.384,0.017
274,0.018,0.087,0.064,0.054,0.313,1.028,2.009,1.106,0.868,0.619,0.135,0.073,0.04,0.02,0.014,0.983,0.395,0.016
275,0.017,0.06,0.072,0.077,0.26,0.895,1.998,1.135,0.896,0.639,0.138,0.075,0.041,0.02,0.013,1.011,0.408,0.016
276,0.018,0.047,0.064,0.101,0.268,0.822,2.033,1.163,0.923,0.658,0.142,0.077,0.042,0.02,0.013,1.038,0.418,0.016
277,0.018,0.058,0.059,0.125,0.274,0.803,2.005,1.193,0.946,0.675,0.146,0.079,0.043,0.022,0.015,1.06,0.428,0.017
278,0.018,0.08,0.041,0.135,0.286,0.762,1.996,1.214,0.963,0.687,0.149,0.081,0.045,0.023,0.016,1.079,0.435,0.018
279,0.017,0.112,0.104,0.155,0.241,0.775,1.958,1.228,0.974,0.697,0.151,0.083,0.046,0.022,0.015,1.094,0.441,0.017
280,0.017,0.088,0.079,0.161,0.181,0.743,1.964,1.246,0.99,0.709,0.153,0.083,0.046,0.022,0.014,1.113,0.449,0.017
281,0.017,0.099,0.069,0.146,0.158,0.762,2.053,1.275,1.011,0.722,0.156,0.084,0.047,0.023,0.015,1.135,0.459,0.018
282,0.018,0.101,0.064,0.101,0.162,0.808,2.072,1.302,1.03,0.735,0.16,0.085,0.048,0.025,0.016,1.15,0.468,0.018
283,0.018,0.088,0.045,0.138,0.17,0.79,2.07,1.315,1.042,0.744,0.162,0.086,0.05,0.026,0.017,1.159,0.474,0.019
284,0.018,0.079,0.051,0.176,0.164,0.783,2.011,1.313,1.044,0.746,0.163,0.088,0.051,0.026,0.017,1.152,0.476,0.02
285,0.017,0.036,0.039,0.227,0.195,0.657,1.985,1.307,1.038,0.742,0.161,0.087,0.05,0.026,0.018,1.147,0.473,0.02
286,0.017,0.053,0.061,0.205,0.191,0.755,2.013,1.297,1.03,0.734,0.16,0.086,0.05,0.026,0.017,1.145,0.468,0.02
287,0.016,0.137,0.057,0.11,0.216,0.846,2.01,1.281,1.016,0.723,0.158,0.084,0.048,0.024,0.016,1.126,0.46,0.018
288,0.016,0.166,0.064,0.111,0.218,0.861,2.007,1.259,1.0,0.714,0.155,0.081,0.046,0.023,0.016,1.112,0.453,0.017
289,0.017,0.162,0.091,0.084,0.205,0.846,1.98,1.24,0.982,0.703,0.152,0.08,0.045,0.022,0.015,1.095,0.445,0.017
290,0.016,0.127,0.116,0.108,0.18,0.834,1.983,1.221,0.963,0.689,0.149,0.079,0.044,0.022,0.015,1.084,0.437,0.016
291,0.016,0.117,0.162,0.128,0.19,0.969,2.017,1.196,0.945,0.674,0.147,0.078,0.045,0.023,0.015,1.076,0.428,0.017
292,0.015,0.115,0.116,0.119,0.222,0.955,2.0,1.167,0.921,0.656,0.143,0.076,0.044,0.022,0.015,1.037,0.418,0.018
293,0.014,0.125,0.086,0.177,0.284,0.919,1.947,1.129,0.891,0.636,0.138,0.073,0.042,0.022,0.015,1.0,0.405,0.018
294,0.015,0.137,0.112,0.214,0.337,0.941,1.907,1.091,0.857,0.611,0.132,0.07,0.041,0.021,0.014,0.954,0.389,0.017
295,0.014,0.157,0.156,0.208,0.371,1.041,1.887,1.045,0.817,0.581,0.125,0.067,0.038,0.019,0.012,0.911,0.37,0.015
296,0.013,0.14,0.179,0.22,0.427,1.231,1.888,0.994,0.775,0.552,0.119,0.064,0.037,0.019,0.012,0.874,0.35,0.014
297,0.012,0.135,0.171,0.196,0.512,1.338,1.844,0.937,0.729,0.52,0.112,0.061,0.034,0.017,0.01,0.825,0.329,0.014
298,0.012,0.104,0.162,0.188,0.659,1.428,1.754,0.877,0.683,0.486,0.105,0.057,0.033,0.017,0.011,0.774,0.309,0.014
299,0.013,0.088,0.152,0.31,0.756,1.511,1.644,0.814,0.635,0.451,0.099,0.053,0.031,0.017,0.012,0.722,0.288,0.015
300,0.011,0.094,0.193,0.425,0.856,1.591,1.52,0.748,0.583,0.413,0.091,0.048,0.027,0.015,0.01,0.666,0.266,0.013
301,0.01,0.111,0.26,0.52,0.959,1.723,1.399,0.681,0.532,0.376,0.084,0.044,0.024,0.013,0.009,0.613,0.244,0.012
302,0.009,0.206,0.389,0.602,1.094,1.814,1.285,0.617,0.481,0.341,0.077,0.04,0.023,0.011,0.008,0.557,0.221,0.011
303,0.01,0.314,0.541,0.718,1.283,1.9,1.166,0.556,0.433,0.307,0.068,0.036,0.02,0.011,0.007,0.502,0.199,0.01
304,0.011,0.406,0.686,0.912,1.403,1.96,1.052,0.5,0.388,0.275,0.061,0.033,0.018,0.01,0.007,0.451,0.179,0.01
305,0.011,0.565,0.871,1.111,1.549,1.98,0.94,0.447,0.347,0.247,0.055,0.03,0.016,0.009,0.007,0.403,0.161,0.011
306,0.012,0.726,0.984,1.314,1.714,1.948,0.842,0.4,0.311,0.222,0.05,0.027,0.016,0.009,0.007,0.365,0.145,0.011
307,0.012,0.929,1.218,1.522,1.848,1.867,0.755,0.359,0.277,0.198,0.045,0.023,0.015,0.008,0.007,0.33,0.13,0.011
308,0.012,1.115,1.405,1.747,1.951,1.771,0.675,0.321,0.247,0.177,0.041,0.021,0.014,0.008,0.006,0.297,0.117,0.009
309,0.012,1.239,1.556,1.834,1.99,1.647,0.607,0.289,0.222,0.159,0.038,0.019,0.012,0.007,0.005,0.27,0.106,0.009
310,0.012,1.452,1.713,1.864,1.987,1.521,0.552,0.262,0.201,0.145,0.035,0.019,0.012,0.008,0.006,0.246,0.098,0.01
311,0.012,1.556,1.742,1.907,2.002,1.4,0.504,0.239,0.184,0.133,0.033,0.018,0.012,0.009,0.006,0.226,0.09,0.011
312,0.012,1.636,1.809,1.942,1.947,1.302,0.465,0.221,0.17,0.123,0.03,0.017,0.011,0.008,0.007,0.21,0.084,0.011
313,0.011,1.749,1.828,2.016,1.879,1.212,0.432,0.206,0.159,0.115,0.028,0.016,0.01,0.008,0.006,0.196,0.079,0.011
314,0.011,1.832,1.858,2.04,1.797,1.149,0.406,0.194,0.15,0.107,0.026,0.015,0.008,0.007,0.006,0.185,0.074,0.009
315,0.01,1.903,1.957,2.011,1.716,1.097,0.386,0.184,0.143,0.102,0.025,0.014,0.008,0.006,0.006,0.176,0.07,0.008
316,0.011,1.812,1.957,1.994,1.683,1.057,0.371,0.177,0.138,0.098,0.024,0.013,0.008,0.006,0.005,0.171,0.068,0.008
317,0.011,1.745,1.939,1.939,1.617,1.03,0.362,0.172,0.134,0.097,0.023,0.012,0.008,0.005,0.004,0.168,0.066,0.008
318,0.011,1.778,1.938,1.935,1.592,1.013,0.357,0.171,0.133,0.096,0.024,0.013,0.009,0.006,0.004,0.167,0.066,0.009
319,0.011,1.862,1.946,1.938,1.576,1.009,0.354,0.169,0.131,0.095,0.024,0.013,0.008,0.006,0.004,0.165,0.066,0.01
320,0.01,1.9,1.979,1.91,1.573,1.01,0.355,0.17,0.132,0.096,0.024,0.013,0.009,0.007,0.005,0.165,0.067,0.01
321,0.01,1.867,1.917,1.867,1.585,1.016,0.358,0.17,0.133,0.097,0.023,0.013,0.008,0.006,0.005,0.167,0.068,0.009
322,0.009,1.816,1.874,1.874,1.599,1.03,0.364,0.172,0.134,0.097,0.022,0.013,0.008,0.005,0.004,0.168,0.069,0.008
323,0.008,1.848,1.922,1.954,1.653,1.053,0.372,0.174,0.135,0.098,0.022,0.012,0.007,0.004,0.002,0.17,0.069,0.007
324,0.008,1.858,1.981,1.99,1.698,1.081,0.38,0.178,0.138,0.099,0.022,0.012,0.006,0.004,0.002,0.173,0.069,0.007
325,0.009,1.833,2.055,1.973,1.719,1.109,0.391,0.185,0.143,0.102,0.024,0.013,0.008,0.005,0.003,0.18,0.072,0.008
326,0.01,1.791,1.983,1.94,1.73,1.137,0.405,0.192,0.149,0.107,0.026,0.014,0.009,0.007,0.005,0.185,0.074,0.01
327,0.011,1.641,1.893,1.9,1.742,1.169,0.418,0.199,0.154,0.111,0.027,0.015,0.009,0.007,0.005,0.19,0.076,0.01
328,0.01,1.595,1.83,1.88,1.776,1.208,0.432,0.203,0.158,0.113,0.026,0.014,0.007,0.005,0.004,0.193,0.077,0.009
329,0.01,1.554,1.774,1.837,1.822,1.249,0.446,0.209,0.163,0.118,0.026,0.014,0.007,0.005,0.003,0.196,0.079,0.008
330,0.009,1.471,1.84,1.881,1.865,1.287,0.462,0.216,0.169,0.122,0.027,0.014,0.007,0.006,0.003,0.203,0.082,0.007
331,0.01,1.407,1.781,1.93,1.884,1.319,0.479,0.225,0.176,0.126,0.029,0.016,0.009,0.008,0.005,0.211,0.085,0.009
332,0.01,1.396,1.704,1.932,1.907,1.359,0.496,0.233,0.182,0.13,0.03,0.017,0.01,0.008,0.006,0.22,0.089,0.01
333,0.009,1.415,1.6,1.79,1.909,1.408,0.512,0.241,0.188,0.133,0.03,0.016,0.008,0.007,0.004,0.226,0.089,0.009
334,0.009,1.37,1.575,1.706,1.913,1.457,0.531,0.25,0.194,0.138,0.03,0.015,0.008,0.006,0.004,0.23,0.092,0.008
335,0.009,1.242,1.541,1.635,1.863,1.496,0.55,0.257,0.2,0.142,0.03,0.015,0.008,0.006,0.003,0.237,0.094,0.007
336,0.009,1.148,1.535,1.635,1.894,1.528,0.57,0.267,0.208,0.149,0.032,0.019,0.009,0.007,0.004,0.245,0.098,0.008
337,0.009,1.154,1.455,1.602,1.906,1.572,0.591,0.277,0.215,0.154,0.034,0.02,0.01,0.008,0.006,0.254,0.102,0.01
338,0.009,1.112,1.409,1.563,1.903,1.615,0.611,0.286,0.223,0.159,0.035,0.02,0.01,0.008,0.005,0.263,0.105,0.01
339,0.009,1.063,1.401,1.684,1.832,1.664,0.633,0.295,0.23,0.164,0.036,0.02,0.01,0.008,0.005,0.272,0.11,0.009
340,0.009,1.026,1.363,1.654,1.776,1.689,0.65,0.301,0.236,0.168,0.037,0.02,0.009,0.008,0.004,0.278,0.112,0.008
341,0.009,1.002,1.315,1.64,1.809,1.704,0.669,0.311,0.244,0.174,0.039,0.02,0.009,0.008,0.005,0.284,0.115,0.009
342,0.01,0.942,1.18,1.55,1.831,1.722,0.69,0.321,0.25,0.179,0.04,0.02,0.01,0.008,0.005,0.293,0.118,0.01
343,0.01,0.881,1.116,1.443,1.807,1.732,0.708,0.331,0.257,0.184,0.041,0.022,0.011,0.008,0.006,0.301,0.121,0.011
344,0.008,0.837,1.073,1.405,1.744,1.777,0.726,0.338,0.263,0.186,0.04,0.021,0.01,0.007,0.005,0.306,0.123,0.009
345,0.007,0.804,1.145,1.362,1.725,1.792,0.744,0.346,0.269,0.189,0.038,0.02,0.008,0.005,0.003,0.311,0.124,0.007
346,0.008,0.778,1.162,1.385,1.712,1.832,0.761,0.354,0.276,0.194,0.039,0.02,0.009,0.006,0.003,0.318,0.125,0.006
347,0.008,0.723,1.082,1.3,1.687,1.847,0.777,0.362,0.282,0.199,0.042,0.021,0.011,0.007,0.004,0.327,0.128,0.007
348,0.009,0.677,0.963,1.174,1.687,1.848,0.796,0.37,0.288,0.205,0.045,0.023,0.012,0.008,0.005,0.333,0.133,0.008
349,0.008,0.604,0.914,1.106,1.632,1.864,0.813,0.376,0.294,0.209,0.045,0.023,0.012,0.008,0.004,0.341,0.135,0.009
350,0.008,0.605,0.954,1.108,1.629,1.862,0.832,0.385,0.3,0.214,0.046,0.024,0.013,0.009,0.005,0.347,0.14,0.01
351,0.008,0.613,0.95,1.169,1.571,1.852,0.845,0.393,0.306,0.217,0.045,0.024,0.012,0.008,0.005,0.352,0.142,0.008
352,0.008,0.553,0.974,1.182,1.545,1.874,0.857,0.4,0.311,0.22,0.046,0.025,0.013,0.008,0.004,0.359,0.144,0.009
353,0.008,0.507,0.971,1.16,1.547,1.887,0.871,0.407,0.315,0.225,0.047,0.026,0.012,0.008,0.004,0.363,0.146,0.009
354,0.008,0.473,0.898,1.124,1.57,1.91,0.882,0.413,0.321,0.228,0.048,0.026,0.012,0.008,0.004,0.37,0.148,0.009
355,0.007,0.553,0.808,1.08,1.641,1.942,0.895,0.418,0.326,0.23,0.049,0.025,0.013,0.008,0.006,0.374,0.15,0.009
356,0.008,0.551,0.739,1.069,1.651,1.969,0.906,0.423,0.33,0.233,0.049,0.024,0.013,0.008,0.006,0.376,0.151,0.008
357,0.008,0.509,0.848,1.216,1.669,1.996,0.917,0.428,0.333,0.235,0.05,0.024,0.012,0.008,0.006,0.379,0.152,0.008
358,0.008,0.511,0.927,1.283,1.699,1.967,0.926,0.431,0.335,0.237,0.051,0.025,0.012,0.008,0.005,0.383,0.152,0.007
359,0.008,0.47,0.896,1.266,1.666,1.947,0.935,0.435,0.337,0.239,0.052,0.027,0.012,0.008,0.004,0.386,0.154,0.008
360,0.006,0.462,0.796,1.183,1.622,1.962,0.945,0.439,0.34,0.241,0.052,0.027,0.012,0.008,0.005,0.392,0.155,0.009
361,0.007,0.468,0.78,1.096,1.568,2.039,0.957,0.443,0.343,0.243,0.051,0.027,0.013,0.008,0.005,0.395,0.157,0.009
362,0.007,0.492,0.77,1.188,1.525,2.105,0.961,0.444,0.345,0.242,0.049,0.025,0.013,0.007,0.005,0.395,0.156,0.008
363,0.007,0.492,0.766,1.163,1.543,2.037,0.959,0.445,0.345,0.242,0.049,0.025,0.013,0.007,0.004,0.394,0.156,0.007
364,0.006,0.487,0.745,1.115,1.508,1.991,0.957,0.445,0.346,0.244,0.05,0.026,0.012,0.007,0.004,0.393,0.157,0.007
365,0.007,0.443,0.656,1.054,1.459,1.902,0.958,0.446,0.348,0.246,0.053,0.028,0.013,0.009,0.005,0.397,0.16,0.009
366,0.008,0.428,0.771,0.985,1.456,1.912,0.959,0.449,0.35,0.248,0.054,0.029,0.014,0.01,0.006,0.402,0.162,0.01
367,0.009,0.421,0.76,0.982,1.457,1.924,0.958,0.449,0.349,0.248,0.053,0.028,0.013,0.009,0.006,0.399,0.16,0.009
368,0.009,0.417,0.753,0.975,1.505,1.886,0.954,0.447,0.347,0.246,0.051,0.027,0.013,0.008,0.004,0.396,0.158,0.007
369,0.008,0.402,0.663,0.933,1.526,1.87,0.95,0.443,0.344,0.243,0.049,0.025,0.011,0.007,0.003,0.392,0.156,0.007
370,0.008,0.427,0.584,0.929,1.496,1.847,0.948,0.441,0.342,0.243,0.049,0.026,0.012,0.008,0.004,0.39,0.155,0.007
371,0.008,0.449,0.732,0.907,1.495,1.847,0.943,0.439,0.339,0.242,0.05,0.025,0.012,0.008,0.005,0.389,0.155,0.007
372,0.007,0.435,0.753,0.926,1.473,1.832,0.941,0.437,0.337,0.241,0.05,0.026,0.012,0.008,0.005,0.386,0.154,0.008
373,0.007,0.426,0.78,0.944,1.39,1.816,0.933,0.433,0.336,0.24,0.051,0.027,0.013,0.009,0.007,0.386,0.156,0.009
374,0.008,0.38,0.75,0.998,1.432,1.856,0.925,0.43,0.335,0.238,0.052,0.028,0.014,0.01,0.007,0.384,0.156,0.01
375,0.008,0.461,0.775,1.069,1.473,1.904,0.916,0.427,0.333,0.236,0.051,0.028,0.015,0.01,0.007,0.376,0.155,0.01
376,0.008,0.53,0.881,1.095,1.535,1.877,0.905,0.423,0.328,0.232,0.05,0.026,0.014,0.01,0.006,0.37,0.151,0.009
377,0.009,0.602,0.889,1.107,1.575,1.916,0.895,0.417,0.324,0.228,0.048,0.025,0.013,0.01,0.006,0.365,0.147,0.008
378,0.008,0.59,0.884,1.064,1.578,1.941,0.882,0.41,0.318,0.224,0.047,0.025,0.012,0.009,0.006,0.361,0.144,0.008
379,0.008,0.592,0.844,1.089,1.62,1.927,0.87,0.405,0.314,0.221,0.046,0.025,0.011,0.009,0.005,0.358,0.144,0.008
380,0.007,0.591,0.893,1.148,1.649,1.912,0.855,0.399,0.309,0.218,0.046,0.024,0.01,0.008,0.005,0.354,0.142,0.008
381,0.007,0.578,1.021,1.199,1.644,1.899,0.84,0.392,0.304,0.214,0.046,0.023,0.011,0.009,0.005,0.349,0.14,0.007
382,0.007,0.582,1.068,1.206,1.681,1.929,0.823,0.385,0.298,0.21,0.045,0.022,0.01,0.008,0.005,0.343,0.137,0.007
383,0.006,0.635,1.05,1.242,1.686,1.901,0.806,0.375,0.291,0.205,0.043,0.021,0.009,0.007,0.004,0.335,0.132,0.006
384,0.006,0.711,0.974,1.244,1.702,1.843,0.792,0.367,0.285,0.201,0.041,0.022,0.009,0.007,0.004,0.329,0.13,0.007
385,0.007,0.808,0.995,1.301,1.737,1.835,0.778,0.361,0.28,0.197,0.041,0.022,0.009,0.006,0.003,0.325,0.128,0.008
386,0.008,0.867,1.062,1.314,1.754,1.868,0.764,0.354,0.275,0.194,0.041,0.023,0.01,0.007,0.005,0.32,0.126,0.009
387,0.007,0.871,1.163,1.322,1.776,1.865,0.745,0.347,0.269,0.19,0.04,0.022,0.01,0.008,0.005,0.311,0.123,0.009
388,0.007,0.871,1.231,1.412,1.822,1.846,0.725,0.338,0.261,0.185,0.038,0.02,0.009,0.007,0.005,0.301,0.119,0.007
389,0.007,0.914,1.26,1.42,1.835,1.803,0.706,0.329,0.255,0.181,0.037,0.02,0.01,0.008,0.005,0.294,0.117,0.008
390,0.009,0.952,1.277,1.453,1.814,1.78,0.689,0.321,0.248,0.177,0.037,0.02,0.011,0.008,0.005,0.289,0.115,0.008
391,0.011,1.058,1.336,1.47,1.879,1.754,0.674,0.313,0.243,0.172,0.038,0.021,0.012,0.009,0.006,0.282,0.113,0.01
392,0.01,1.154,1.392,1.527,1.925,1.711,0.654,0.304,0.235,0.167,0.038,0.02,0.011,0.009,0.006,0.275,0.11,0.01
393,0.009,1.188,1.413,1.6,1.959,1.676,0.635,0.294,0.228,0.16,0.036,0.02,0.01,0.008,0.006,0.267,0.107,0.009
394,0.007,1.233,1.451,1.627,1.961,1.625,0.616,0.285,0.22,0.155,0.034,0.019,0.009,0.008,0.006,0.259,0.104,0.009
395,0.007,1.17,1.515,1.666,1.898,1.585,0.595,0.275,0.213,0.15,0.031,0.016,0.007,0.007,0.004,0.25,0.1,0.008
396,0.007,1.235,1.556,1.685,1.899,1.544,0.575,0.267,0.206,0.145,0.029,0.015,0.005,0.005,0.002,0.241,0.096,0.007
397,0.006,1.301,1.555,1.699,1.882,1.5,0.555,0.257,0.199,0.14,0.028,0.013,0.005,0.005,0.001,0.234,0.092,0.006
398,0.006,1.362,1.604,1.715,1.877,1.464,0.538,0.248,0.193,0.136,0.029,0.015,0.005,0.006,0.003,0.228,0.09,0.007
399,0.006,1.41,1.687,1.761,1.915,1.418,0.519,0.239,0.186,0.131,0.028,0.014,0.006,0.005,0.003,0.218,0.088,0.007
400,0.005,1.425,1.724,1.825,1.907,1.381,0.499,0.229,0.177,0.125,0.025,0.011,0.004,0.003,0.001,0.21,0.084,0.004
401,0.006,1.475,1.718,1.846,1.906,1.336,0.479,0.221,0.17,0.119,0.023,0.01,0.003,0.003,0.001,0.202,0.08,0.004
402,0.006,1.56,1.776,1.834,1.869,1.294,0.459,0.212,0.163,0.114,0.021,0.009,0.003,0.003,0.0,0.194,0.075,0.004
403,0.008,1.671,1.865,1.81,1.812,1.253,0.443,0.204,0.157,0.11,0.021,0.011,0.003,0.004,0.002,0.188,0.073,0.006
404,0.009,1.742,1.887,1.873,1.789,1.206,0.426,0.197,0.152,0.107,0.023,0.012,0.005,0.006,0.004,0.182,0.072,0.008
405,0.009,1.843,1.88,1.913,1.777,1.156,0.409,0.19,0.146,0.102,0.022,0.011,0.004,0.006,0.004,0.178,0.069,0.008
406,0.008,1.799,1.855,1.921,1.718,1.108,0.392,0.182,0.139,0.097,0.02,0.01,0.003,0.005,0.003,0.171,0.067,0.007
407,0.007,1.844,1.855,1.892,1.648,1.061,0.374,0.174,0.133,0.093,0.019,0.008,0.002,0.004,0.001,0.162,0.063,0.006
408,0.007,1.816,1.824,1.87,1.584,1.018,0.358,0.166,0.128,0.09,0.018,0.009,0.002,0.003,0.001,0.154,0.061,0.005
409,0.007,1.811,1.826,1.895,1.546,0.974,0.343,0.161,0.124,0.087,0.019,0.009,0.003,0.005,0.003,0.147,0.059,0.006
410,0.007,1.878,1.866,1.853,1.508,0.931,0.326,0.153,0.118,0.083,0.018,0.009,0.003,0.004,0.003,0.141,0.056,0.006
411,0.006,1.908,1.897,1.788,1.447,0.887,0.31,0.144,0.112,0.078,0.016,0.007,0.002,0.003,0.002,0.135,0.053,0.006
412,0.006,1.942,1.902,1.718,1.384,0.845,0.294,0.137,0.106,0.074,0.016,0.007,0.001,0.003,0.001,0.13,0.05,0.006
413,0.005,1.931,1.852,1.687,1.322,0.806,0.281,0.13,0.1,0.071,0.015,0.007,0.002,0.004,0.001,0.125,0.049,0.006
414,0.006,1.933,1.797,1.652,1.26,0.768,0.267,0.124,0.095,0.067,0.014,0.006,0.002,0.003,0.001,0.118,0.046,0.006
415,0.007,1.903,1.759,1.594,1.204,0.73,0.253,0.117,0.088,0.063,0.013,0.005,0.001,0.003,0.001,0.111,0.044,0.005
416,0.006,1.865,1.71,1.526,1.145,0.692,0.238,0.11,0.084,0.059,0.01,0.004,0.0,0.003,0.001,0.104,0.042,0.003
417,0.006,1.835,1.652,1.456,1.091,0.657,0.226,0.105,0.08,0.056,0.011,0.005,0.001,0.004,0.002,0.102,0.041,0.004
418,0.006,1.79,1.591,1.389,1.036,0.622,0.214,0.101,0.077,0.055,0.011,0.006,0.002,0.005,0.003,0.098,0.041,0.006
419,0.006,1.758,1.517,1.321,0.982,0.587,0.202,0.096,0.073,0.052,0.01,0.006,0.002,0.004,0.002,0.093,0.039,0.006
420,0.004,1.687,1.451,1.255,0.926,0.553,0.189,0.088,0.067,0.046,0.008,0.003,0.0,0.002,0.001,0.085,0.035,0.005
421,0.003,1.635,1.383,1.189,0.876,0.519,0.176,0.08,0.061,0.041,0.006,0.001,-0.002,0.0,-0.001,0.077,0.031,0.003
422,0.004,1.563,1.304,1.126,0.827,0.489,0.166,0.075,0.057,0.038,0.006,0.0,-0.002,0.0,-0.001,0.073,0.029,0.003
423,0.005,1.485,1.232,1.065,0.778,0.461,0.156,0.071,0.054,0.037,0.006,0.001,-0.002,0.0,0.0,0.068,0.028,0.003
424,0.004,1.405,1.162,1.003,0.732,0.433,0.147,0.067,0.049,0.034,0.005,0.001,-0.002,0.0,-0.001,0.065,0.027,0.004
425,0.004,1.328,1.098,0.944,0.687,0.407,0.139,0.065,0.047,0.033,0.006,0.002,-0.002,0.001,0.0,0.063,0.026,0.005
426,0.005,1.254,1.036,0.888,0.645,0.382,0.131,0.063,0.046,0.032,0.006,0.002,-0.001,0.002,0.001,0.06,0.026,0.005
427,0.007,1.177,0.972,0.833,0.606,0.36,0.124,0.061,0.045,0.032,0.007,0.003,-0.001,0.003,0.001,0.057,0.025,0.004
428,0.008,1.102,0.908,0.779,0.567,0.337,0.117,0.058,0.045,0.031,0.007,0.004,0.001,0.003,0.003,0.053,0.024,0.004
429,0.007,1.026,0.845,0.726,0.529,0.313,0.108,0.053,0.042,0.028,0.006,0.004,0.001,0.002,0.002,0.049,0.022,0.004
430,0.006,0.955,0.789,0.677,0.492,0.292,0.1,0.049,0.038,0.027,0.006,0.004,0.001,0.003,0.002,0.047,0.022,0.005
431,0.006,0.89,0.736,0.632,0.457,0.271,0.092,0.044,0.034,0.024,0.006,0.004,0.0,0.003,0.001,0.044,0.021,0.006
432,0.007,0.828,0.686,0.589,0.425,0.252,0.084,0.041,0.031,0.022,0.005,0.002,-0.001,0.002,0.001,0.042,0.02,0.006
433,0.007,0.775,0.637,0.545,0.394,0.232,0.078,0.038,0.028,0.02,0.003,0.001,-0.002,0.001,0.0,0.038,0.018,0.004
434,0.007,0.722,0.591,0.506,0.365,0.216,0.072,0.036,0.026,0.019,0.002,0.001,-0.002,0.002,0.0,0.037,0.018,0.004
435,0.008,0.671,0.55,0.471,0.34,0.202,0.067,0.034,0.025,0.018,0.004,0.002,-0.001,0.003,0.001,0.038,0.019,0.006
436,0.007,0.621,0.51,0.436,0.316,0.188,0.063,0.032,0.023,0.016,0.005,0.002,-0.002,0.003,0.001,0.037,0.017,0.006
437,0.007,0.574,0.471,0.403,0.292,0.173,0.058,0.03,0.021,0.015,0.003,0.0,-0.002,0.002,0.0,0.034,0.015,0.005
438,0.006,0.53,0.434,0.371,0.27,0.158,0.054,0.028,0.02,0.015,0.002,0.0,-0.002,0.002,0.001,0.03,0.014,0.004
439,0.006,0.487,0.399,0.341,0.248,0.145,0.051,0.026,0.019,0.014,0.002,0.0,-0.001,0.003,0.001,0.028,0.014,0.006
440,0.005,0.448,0.367,0.314,0.227,0.134,0.045,0.023,0.017,0.012,0.001,-0.001,-0.003,0.002,0.0,0.023,0.012,0.004
441,0.003,0.412,0.336,0.287,0.206,0.122,0.04,0.019,0.012,0.007,-0.002,-0.004,-0.006,-0.002,-0.004,0.019,0.007,0.001
442,0.004,0.379,0.309,0.263,0.188,0.111,0.035,0.016,0.01,0.004,-0.004,-0.006,-0.008,-0.004,-0.006,0.016,0.005,-0.001
443,0.005,0.348,0.284,0.242,0.173,0.101,0.032,0.015,0.009,0.004,-0.004,-0.005,-0.006,-0.003,-0.005,0.016,0.006,-0.001
444,0.007,0.32,0.261,0.222,0.16,0.094,0.031,0.017,0.01,0.007,-0.002,-0.002,-0.003,0.0,-0.002,0.017,0.009,0.003
445,0.007,0.293,0.239,0.204,0.149,0.088,0.031,0.018,0.013,0.009,0.002,0.001,0.0,0.003,0.002,0.02,0.012,0.006
446,0.006,0.266,0.217,0.185,0.135,0.081,0.029,0.016,0.012,0.008,0.002,0.001,0.0,0.003,0.001,0.019,0.011,0.005
447,0.006,0.244,0.197,0.168,0.124,0.075,0.026,0.014,0.011,0.007,0.002,0.0,-0.001,0.004,0.002,0.018,0.009,0.005
448,0.006,0.222,0.179,0.153,0.113,0.068,0.023,0.014,0.01,0.006,0.001,0.0,0.0,0.004,0.003,0.016,0.009,0.005
449,0.007,0.202,0.163,0.139,0.103,0.062,0.022,0.014,0.01,0.007,0.002,0.002,0.001,0.005,0.004,0.015,0.01,0.006
450,0.007,0.182,0.149,0.128,0.093,0.057,0.019,0.014,0.011,0.007,0.004,0.002,0.001,0.006,0.004,0.014,0.01,0.007
451,0.007,0.165,0.135,0.115,0.084,0.05,0.016,0.011,0.009,0.006,0.003,0.001,-0.001,0.003,0.001,0.012,0.008,0.005
452,0.006,0.15,0.122,0.104,0.076,0.045,0.014,0.009,0.007,0.004,0.002,0.0,-0.002,0.002,-0.001,0.01,0.007,0.004
453,0.006,0.135,0.11,0.094,0.068,0.04,0.013,0.008,0.005,0.003,0.001,-0.001,-0.003,0.002,0.0,0.012,0.008,0.004
454,0.006,0.12,0.099,0.084,0.062,0.037,0.013,0.009,0.005,0.004,0.002,0.0,-0.001,0.004,0.002,0.015,0.01,0.006
455,0.007,0.109,0.089,0.077,0.056,0.034,0.012,0.01,0.006,0.005,0.002,0.001,0.0,0.004,0.003,0.014,0.01,0.007
456,0.008,0.097,0.08,0.068,0.049,0.03,0.009,0.007,0.004,0.003,0.0,-0.001,-0.002,0.002,0.001,0.011,0.008,0.005
457,0.004,0.085,0.069,0.059,0.041,0.023,0.005,0.004,0.001,0.0,-0.003,-0.003,-0.005,-0.002,-0.002,0.006,0.004,0.001
458,0.001,0.073,0.058,0.05,0.034,0.018,0.003,0.001,-0.002,-0.002,-0.004,-0.004,-0.006,-0.003,-0.003,0.005,0.002,-0.001
459,0.0,0.064,0.05,0.042,0.029,0.014,0.001,-0.001,-0.003,-0.004,-0.004,-0.005,-0.007,-0.004,-0.004,0.003,0.0,-0.003
460,0.002,0.059,0.046,0.037,0.027,0.013,0.001,-0.001,-0.003,-0.004,-0.004,-0.006,-0.007,-0.003,-0.005,0.0,-0.001,-0.003
461,0.004,0.054,0.042,0.034,0.024,0.013,0.0,-0.001,-0.003,-0.004,-0.005,-0.007,-0.008,-0.003,-0.005,0.001,0.0,-0.003
462,0.005,0.049,0.04,0.033,0.023,0.013,0.001,0.002,-0.001,-0.002,-0.004,-0.005,-0.006,-0.002,-0.004,0.002,0.002,-0.001
463,0.005,0.042,0.035,0.029,0.019,0.011,0.0,0.001,-0.002,-0.002,-0.003,-0.005,-0.006,-0.002,-0.003,0.004,0.003,0.001
464,0.006,0.038,0.031,0.026,0.018,0.011,0.001,0.001,-0.001,-0.001,-0.002,-0.004,-0.005,-0.001,-0.003,0.006,0.004,0.002
465,0.006,0.033,0.028,0.023,0.016,0.009,0.001,0.001,-0.001,-0.001,-0.002,-0.003,-0.005,-0.001,-0.002,0.005,0.004,0.003
466,0.005,0.03,0.025,0.021,0.015,0.008,0.002,0.002,0.0,0.0,-0.001,-0.001,-0.004,0.001,0.0,0.006,0.006,0.004
467,0.003,0.026,0.022,0.018,0.013,0.007,0.001,0.002,0.0,0.0,-0.001,-0.001,-0.003,0.002,0.001,0.006,0.005,0.004
468,0.001,0.022,0.017,0.014,0.01,0.005,-0.001,0.0,-0.002,-0.001,-0.002,-0.003,-0.004,0.0,-0.001,0.004,0.003,0.001
469,0.002,0.019,0.014,0.012,0.009,0.004,-0.003,-0.001,-0.003,-0.003,-0.004,-0.004,-0.006,-0.001,-0.003,0.002,0.001,-0.001
470,0.002,0.016,0.011,0.01,0.007,0.003,-0.005,-0.002,-0.005,-0.005,-0.006,-0.006,-0.008,-0.003,-0.005,0.0,-0.002,-0.003
471,0.004,0.016,0.011,0.01,0.007,0.002,-0.004,-0.002,-0.004,-0.004,-0.006,-0.006,-0.007,-0.003,-0.004,-0.001,-0.001,-0.003
472,0.004,0.014,0.01,0.008,0.005,0.001,-0.004,-0.001,-0.003,-0.005,-0.006,-0.006,-0.007,-0.003,-0.005,0.001,0.0,-0.001
473,0.003,0.011,0.008,0.007,0.004,0.0,-0.003,-0.001,-0.003,-0.004,-0.005,-0.006,-0.007,-0.002,-0.004,0.002,0.002,0.0
474,0.002,0.009,0.007,0.005,0.003,0.0,-0.003,-0.001,-0.003,-0.004,-0.004,-0.006,-0.006,-0.001,-0.003,0.004,0.003,0.001
475,0.002,0.008,0.006,0.004,0.002,0.0,-0.003,-0.001,-0.002,-0.004,-0.004,-0.006,-0.006,-0.002,-0.003,0.004,0.003,0.002
476,0.003,0.008,0.005,0.004,0.002,0.0,-0.003,-0.001,-0.002,-0.003,-0.003,-0.005,-0.006,-0.002,-0.004,0.003,0.003,0.003
477,0.003,0.007,0.005,0.003,0.002,0.0,-0.002,0.0,-0.001,-0.002,-0.003,-0.005,-0.006,-0.002,-0.003,0.002,0.004,0.004
478,0.005,0.007,0.006,0.005,0.003,0.001,0.0,0.002,0.001,0.001,-0.001,-0.002,-0.003,0.001,0.0,0.003,0.006,0.006
479,0.005,0.007,0.007,0.006,0.004,0.003,0.002,0.003,0.002,0.002,0.0,-0.001,-0.002,0.002,0.001,0.003,0.006,0.006
480,0.004,0.006,0.005,0.005,0.002,0.001,-0.001,0.001,0.0,-0.001,-0.002,-0.003,-0.004,-0.001,-0.002,0.0,0.004,0.003
481,0.003,0.004,0.002,0.001,-0.001,-0.002,-0.005,-0.003,-0.004,-0.005,-0.005,-0.006,-0.007,-0.003,-0.004,-0.003,0.0,-0.001
482,0.003,0.003,0.0,-0.001,-0.002,-0.004,-0.007,-0.004,-0.005,-0.007,-0.006,-0.008,-0.009,-0.004,-0.006,-0.003,-0.001,-0.003
483,0.003,0.002,-0.002,-0.002,-0.003,-0.004,-0.006,-0.004,-0.005,-0.006,-0.006,-0.007,-0.008,-0.004,-0.005,-0.003,-0.001,-0.003
484,0.002,0.001,-0.002,-0.001,-0.002,-0.003,-0.005,-0.002,-0.004,-0.004,-0.005,-0.005,-0.007,-0.003,-0.004,-0.004,-0.001,-0.002
485,0.002,0.001,-0.001,0.0,-0.001,-0.001,-0.003,-0.001,-0.003,-0.003,-0.004,-0.003,-0.006,-0.001,-0.002,-0.004,0.002,0.001
486,0.003,0.002,0.0,0.0,-0.001,-0.001,-0.003,-0.001,-0.003,-0.003,-0.003,-0.003,-0.005,0.0,-0.001,-0.003,0.004,0.003
487,0.002,0.002,0.0,-0.001,-0.002,-0.003,-0.005,-0.003,-0.004,-0.005,-0.005,-0.005,-0.006,-0.001,-0.002,-0.003,0.003,0.002
488,0.001,0.0,-0.002,-0.003,-0.004,-0.005,-0.006,-0.005,-0.006,-0.006,-0.007,-0.007,-0.007,-0.003,-0.004,-0.004,0.001,0.0
489,0.002,0.001,-0.001,-0.002,-0.003,-0.003,-0.005,-0.002,-0.005,-0.005,-0.005,-0.005,-0.006,-0.002,-0.003,-0.004,0.002,0.0
490,0.003,0.001,0.0,-0.001,-0.002,-0.003,-0.005,0.0,-0.004,-0.003,-0.004,-0.004,-0.005,-0.001,-0.002,-0.003,0.004,0.003
491,0.004,0.0,-0.001,-0.002,-0.002,-0.004,-0.005,-0.001,-0.005,-0.004,-0.004,-0.005,-0.006,-0.001,-0.002,-0.004,0.003,0.002
492,0.002,-0.001,-0.003,-0.003,-0.004,-0.005,-0.006,-0.004,-0.006,-0.006,-0.006,-0.007,-0.008,-0.003,-0.005,-0.007,-0.001,-0.002
493,0.002,-0.001,-0.003,-0.003,-0.005,-0.005,-0.006,-0.004,-0.005,-0.006,-0.006,-0.008,-0.008,-0.004,-0.005,-0.01,-0.002,-0.002
494,0.003,0.0,-0.001,-0.001,-0.002,-0.002,-0.003,-0.001,-0.001,-0.003,-0.003,-0.004,-0.005,-0.001,-0.002,-0.006,0.001,0.002
495,0.005,0.002,0.001,0.001,0.0,0.0,-0.002,0.0,0.0,0.0,0.0,-0.002,-0.002,0.001,0.001,-0.001,0.005,0.005
496,0.006,0.002,0.001,0.001,0.0,0.0,-0.004,-0.001,-0.002,-0.001,-0.002,-0.004,-0.004,0.0,0.0,-0.001,0.004,0.003
497,0.007,0.003,0.0,0.0,-0.001,-0.001,-0.005,-0.003,-0.004,-0.004,-0.004,-0.005,-0.005,-0.002,-0.003,-0.002,0.001,0.001
498,0.006,0.002,-0.001,-0.001,-0.002,-0.002,-0.005,-0.003,-0.005,-0.004,-0.004,-0.005,-0.006,-0.003,-0.004,-0.003,0.002,0.001
499,0.005,0.001,-0.001,-0.001,-0.002,-0.003,-0.005,-0.003,-0.003,-0.004,-0.005,-0.005,-0.006,-0.002,-0.004,-0.002,0.002,0.001
500,0.005,0.001,0.0,0.0,-0.002,-0.003,-0.005,-0.003,-0.004,-0.004,-0.005,-0.006,-0.006,-0.002,-0.004,-0.002,0.002,0.001
501,0.004,0.001,0.0,-0.001,-0.002,-0.005,-0.006,-0.004,-0.006,-0.006,-0.007,-0.008,-0.008,-0.005,-0.006,-0.004,0.0,-0.001
502,0.002,0.0,0.0,-0.002,-0.003,-0.004,-0.006,-0.005,-0.007,-0.007,-0.007,-0.008,-0.008,-0.006,-0.007,-0.005,-0.002,-0.003
503,0.002,0.0,0.0,-0.001,-0.003,-0.003,-0.005,-0.004,-0.005,-0.006,-0.005,-0.008,-0.008,-0.004,-0.007,-0.005,-0.001,-0.002
504,0.004,0.001,0.0,0.001,-0.001,-0.001,-0.003,-0.002,-0.002,-0.002,-0.003,-0.004,-0.005,-0.001,-0.004,-0.004,0.002,0.001
505,0.006,0.004,0.003,0.004,0.002,0.002,0.0,0.002,0.002,0.003,0.001,0.002,0.0,0.004,0.002,0.0,0.007,0.007
506,0.006,0.004,0.003,0.004,0.002,0.003,0.001,0.003,0.004,0.004,0.004,0.004,0.003,0.006,0.005,0.003,0.009,0.008
507,0.004,0.001,0.001,0.002,0.001,0.003,0.0,0.003,0.003,0.002,0.002,0.002,0.001,0.005,0.004,0.002,0.007,0.006
508,0.005,0.002,0.001,0.001,0.0,0.001,-0.002,0.001,0.001,0.001,0.0,-0.001,-0.002,0.003,0.002,0.0,0.005,0.004
509,0.006,0.003,0.001,0.0,0.0,-0.001,-0.003,0.001,0.0,0.0,-0.002,-0.002,-0.003,0.001,-0.001,-0.002,0.004,0.003
510,0.005,0.003,0.0,-0.002,-0.001,-0.003,-0.004,-0.001,-0.002,-0.002,-0.003,-0.004,-0.005,0.0,-0.003,-0.004,0.002,0.001
511,0.001,0.0,-0.003,-0.004,-0.004,-0.005,-0.007,-0.003,-0.004,-0.006,-0.006,-0.007,-0.007,-0.004,-0.005,-0.006,-0.002,-0.002
512,-0.001,-0.003,-0.005,-0.005,-0.005,-0.007,-0.008,-0.005,-0.007,-0.008,-0.009,-0.01,-0.01,-0.006,-0.007,-0.008,-0.005,-0.005
513,-0.001,-0.005,-0.005,-0.005,-0.005,-0.007,-0.008,-0.006,-0.007,-0.008,-0.009,-0.009,-0.01,-0.006,-0.007,-0.01,-0.005,-0.005
514,0.002,-0.003,-0.001,-0.002,-0.002,-0.003,-0.005,-0.003,-0.004,-0.004,-0.006,-0.006,-0.007,-0.003,-0.004,-0.007,-0.001,-0.001
515,0.004,0.0,0.001,0.001,0.0,0.0,-0.003,-0.001,-0.002,-0.001,-0.003,-0.002,-0.004,0.001,-0.001,-0.002,0.004,0.003
516,0.004,0.002,0.002,0.003,0.002,0.002,-0.001,0.001,0.001,0.001,-0.001,0.0,-0.002,0.003,0.001,0.001,0.006,0.005
517,0.003,0.002,0.001,0.003,0.0,0.0,-0.002,0.001,0.0,0.0,-0.002,-0.001,-0.003,0.002,0.0,-0.001,0.005,0.004
518,0.002,0.0,-0.001,-0.001,-0.002,-0.002,-0.004,-0.002,-0.002,-0.002,-0.004,-0.003,-0.005,-0.002,-0.002,-0.006,0.003,0.003
519,0.003,0.002,0.0,-0.001,-0.001,-0.002,-0.004,-0.001,-0.002,-0.002,-0.004,-0.004,-0.005,-0.002,-0.003,-0.007,0.002,0.003
520,0.006,0.003,0.001,0.001,0.001,0.0,-0.002,0.0,-0.001,-0.001,-0.002,-0.003,-0.003,0.0,-0.001,-0.006,0.003,0.004
521,0.006,0.004,0.002,0.002,0.001,0.001,0.0,0.001,0.0,0.0,-0.001,-0.002,-0.002,0.0,0.0,-0.005,0.003,0.005
522,0.005,0.002,0.002,0.002,0.001,0.001,-0.001,0.0,0.0,0.001,0.0,-0.002,0.0,0.001,0.0,-0.006,0.004,0.005
523,0.005,0.002,0.002,0.002,0.002,0.002,0.001,0.001,0.002,0.002,0.001,0.0,0.0,0.003,0.001,-0.007,0.006,0.006
524,0.007,0.005,0.004,0.004,0.004,0.003,0.002,0.003,0.004,0.004,0.002,0.002,0.001,0.006,0.004,-0.005,0.007,0.007
525,0.008,0.005,0.005,0.004,0.004,0.003,0.001,0.003,0.004,0.004,0.001,0.002,0.0,0.005,0.004,-0.006,0.006,0.005
526,0.007,0.005,0.004,0.004,0.003,0.002,-0.001,0.003,0.002,0.002,0.0,-0.001,-0.002,0.002,0.001,-0.006,0.004,0.003
527,0.003,0.001,0.0,0.002,0.0,0.0,-0.003,0.0,0.0,-0.001,-0.002,-0.003,-0.003,0.0,0.0,-0.007,0.004,0.002
528,0.002,0.001,-0.001,0.001,-0.001,0.0,-0.003,0.0,0.0,-0.002,-0.001,-0.003,-0.002,0.001,0.0,-0.006,0.004,0.003
529,0.004,0.002,0.0,0.0,-0.001,0.0,-0.001,0.0,0.001,-0.001,-0.001,-0.001,0.0,0.002,0.001,-0.007,0.004,0.005
530,0.005,0.002,0.0,0.001,0.0,0.0,-0.001,0.0,0.0,-0.001,-0.002,-0.002,-0.001,0.002,0.001,-0.008,0.004,0.004
531,0.005,0.002,0.001,0.002,0.0,0.0,-0.001,0.0,0.0,0.0,-0.002,-0.002,-0.002,0.001,0.0,-0.008,0.004,0.005
532,0.005,0.002,0.001,0.002,0.001,0.0,-0.001,0.0,0.001,0.0,-0.001,-0.001,-0.002,0.002,0.001,-0.007,0.005,0.006
533,0.006,0.003,0.003,0.003,0.002,0.001,-0.001,0.0,0.002,0.001,-0.001,-0.001,-0.002,0.002,0.001,-0.008,0.006,0.005
534,0.007,0.005,0.004,0.003,0.002,0.002,-0.001,0.001,0.002,0.001,0.0,-0.001,-0.001,0.002,0.002,-0.007,0.005,0.005
535,0.007,0.005,0.003,0.004,0.002,0.002,-0.001,0.001,0.001,0.0,0.0,-0.001,-0.001,0.002,0.002,-0.007,0.005,0.004
536,0.007,0.004,0.002,0.003,0.002,0.001,-0.001,0.0,0.001,0.001,0.0,-0.001,-0.001,0.002,0.002,-0.006,0.005,0.005
537,0.004,0.002,0.001,0.001,0.0,0.0,-0.001,-0.002,0.001,0.0,-0.002,-0.001,-0.002,0.001,0.0,-0.007,0.004,0.004
538,0.004,0.001,0.001,0.002,0.001,0.0,-0.001,-0.001,0.002,0.001,-0.001,-0.001,-0.001,0.002,0.001,-0.006,0.005,0.005
539,0.005,0.003,0.003,0.003,0.002,0.002,0.001,0.001,0.004,0.003,0.001,0.001,0.002,0.004,0.003,-0.003,0.008,0.008
540,0.006,0.003,0.003,0.003,0.002,0.002,0.001,0.002,0.004,0.003,0.002,0.001,0.002,0.004,0.004,-0.001,0.009,0.009
541,0.004,0.002,0.001,0.001,0.0,0.0,-0.001,0.0,0.002,0.0,-0.001,-0.001,-0.001,0.002,0.003,-0.004,0.007,0.007
542,0.002,0.0,-0.001,-0.001,-0.001,-0.003,-0.003,-0.003,-0.001,-0.003,-0.003,-0.003,-0.003,0.0,0.0,-0.008,0.005,0.004
543,0.003,0.0,0.0,0.0,-0.001,-0.002,-0.003,-0.002,-0.001,-0.002,-0.002,-0.002,-0.002,0.001,-0.001,-0.008,0.006,0.004
544,0.004,0.002,0.0,0.001,0.0,-0.001,-0.001,0.0,0.001,0.0,-0.001,0.0,-0.001,0.002,0.0,-0.006,0.006,0.005
545,0.004,0.002,0.001,0.002,0.002,0.002,0.0,0.002,0.004,0.002,0.001,0.001,0.002,0.004,0.002,-0.004,0.005,0.004
546,0.005,0.004,0.004,0.006,0.004,0.005,0.003,0.004,0.006,0.005,0.002,0.003,0.003,0.006,0.003,-0.001,0.006,0.005
547,0.008,0.007,0.007,0.008,0.007,0.006,0.006,0.006,0.007,0.006,0.004,0.003,0.004,0.007,0.005,0.001,0.008,0.008
548,0.01,0.008,0.008,0.009,0.007,0.006,0.005,0.006,0.007,0.005,0.003,0.004,0.004,0.007,0.006,0.002,0.008,0.009
549,0.009,0.007,0.005,0.006,0.003,0.004,0.002,0.003,0.005,0.003,0.003,0.003,0.002,0.005,0.005,-0.001,0.008,0.008
550,0.006,0.002,0.002,0.002,0.002,0.001,-0.001,0.0,0.003,0.001,0.001,-0.001,0.0,0.001,0.001,-0.004,0.005,0.005
551,0.003,0.0,0.0,0.001,0.0,-0.001,-0.002,-0.001,0.001,-0.001,-0.002,-0.003,-0.002,-0.001,-0.002,-0.004,0.003,0.003
552,0.002,0.0,-0.001,0.0,-0.001,-0.003,-0.003,-0.002,0.0,-0.001,-0.004,-0.004,-0.004,-0.002,-0.004,-0.006,0.001,0.001
553,0.004,0.003,0.002,0.001,0.0,-0.001,-0.002,-0.001,0.0,0.0,-0.002,-0.002,-0.002,0.001,-0.002,-0.005,0.003,0.003
554,0.007,0.006,0.005,0.003,0.002,0.003,0.002,0.002,0.004,0.003,0.001,0.001,0.0,0.003,0.001,-0.004,0.006,0.005
555,0.008,0.006,0.007,0.005,0.005,0.005,0.004,0.004,0.006,0.004,0.003,0.002,0.002,0.005,0.003,-0.002,0.006,0.005
556,0.007,0.005,0.006,0.004,0.004,0.003,0.003,0.002,0.005,0.002,0.001,0.002,0.0,0.004,0.002,-0.002,0.006,0.006
557,0.005,0.003,0.004,0.003,0.003,0.002,0.001,0.002,0.004,0.002,0.001,0.002,0.001,0.003,0.002,0.002,0.006,0.006
558,0.005,0.003,0.004,0.003,0.002,0.003,0.0,0.002,0.003,0.003,0.001,0.0,0.001,0.004,0.003,0.005,0.007,0.007
559,0.006,0.004,0.004,0.004,0.003,0.003,0.001,0.003,0.004,0.004,0.001,0.001,0.003,0.005,0.004,0.007,0.008,0.007
560,0.006,0.004,0.002,0.004,0.004,0.002,0.002,0.002,0.005,0.004,0.0,0.001,0.003,0.005,0.005,0.008,0.009,0.007
561,0.005,0.003,0.002,0.002,0.003,0.002,0.001,0.001,0.004,0.003,0.0,0.0,0.0,0.003,0.003,0.003,0.008,0.007
562,0.006,0.002,0.002,0.0,0.001,0.001,-0.001,-0.001,0.003,0.002,0.0,-0.002,-0.001,0.002,0.003,-0.001,0.006,0.005
563,0.007,0.004,0.002,0.002,0.002,0.0,0.0,0.001,0.003,0.002,0.0,-0.001,0.0,0.002,0.004,0.001,0.006,0.004
564,0.009,0.005,0.005,0.005,0.004,0.003,0.002,0.003,0.005,0.005,0.003,0.002,0.004,0.006,0.006,0.005,0.008,0.006
565,0.009,0.006,0.006,0.008,0.007,0.006,0.004,0.005,0.008,0.008,0.005,0.004,0.005,0.009,0.007,0.009,0.01,0.009
566,0.01,0.007,0.008,0.008,0.009,0.008,0.004,0.005,0.008,0.007,0.006,0.004,0.006,0.008,0.008,0.008,0.011,0.01
567,0.01,0.008,0.008,0.008,0.007,0.007,0.005,0.006,0.008,0.006,0.007,0.005,0.005,0.008,0.007,0.008,0.012,0.012
568,0.007,0.006,0.006,0.005,0.005,0.005,0.004,0.005,0.007,0.005,0.005,0.004,0.004,0.006,0.005,0.006,0.01,0.011
569,0.006,0.006,0.005,0.005,0.003,0.005,0.003,0.003,0.006,0.005,0.003,0.003,0.003,0.006,0.005,0.005,0.01,0.011
570,0.007,0.007,0.005,0.006,0.005,0.005,0.004,0.002,0.007,0.006,0.003,0.003,0.003,0.007,0.005,0.008,0.01,0.01
571,0.009,0.007,0.005,0.006,0.006,0.006,0.004,0.004,0.006,0.006,0.002,0.003,0.003,0.006,0.005,0.008,0.009,0.009
572,0.008,0.006,0.005,0.006,0.005,0.005,0.004,0.005,0.007,0.005,0.002,0.003,0.004,0.006,0.004,0.007,0.008,0.007
573,0.007,0.004,0.003,0.005,0.003,0.003,0.004,0.005,0.006,0.004,0.001,0.001,0.002,0.006,0.004,0.004,0.006,0.006
574,0.006,0.002,0.002,0.003,0.003,0.002,0.002,0.002,0.004,0.002,0.001,0.0,0.001,0.005,0.003,0.002,0.005,0.004
575,0.007,0.003,0.003,0.004,0.004,0.003,0.001,0.002,0.003,0.002,0.002,0.001,0.001,0.005,0.003,0.002,0.006,0.004
576,0.006,0.003,0.002,0.002,0.001,0.002,-0.001,-0.001,0.001,-0.001,-0.001,0.0,-0.002,0.001,0.0,0.003,0.005,0.003
577,0.006,0.005,0.003,0.003,0.002,0.002,-0.001,0.0,0.003,-0.001,-0.001,-0.001,-0.001,0.002,0.001,0.008,0.007,0.007
578,0.009,0.006,0.005,0.005,0.004,0.004,0.0,0.003,0.005,0.001,0.001,0.0,0.001,0.003,0.002,0.01,0.009,0.008
579,0.01,0.007,0.008,0.007,0.008,0.005,0.002,0.005,0.006,0.005,0.004,0.001,0.003,0.005,0.004,0.011,0.008,0.008
580,0.008,0.005,0.006,0.005,0.006,0.003,0.001,0.003,0.004,0.003,0.002,0.001,0.002,0.005,0.003,0.008,0.005,0.005
581,0.006,0.003,0.003,0.002,0.003,0.0,-0.002,0.0,0.001,0.0,-0.002,-0.002,-0.002,0.002,0.0,0.003,0.001,0.001
582,0.005,0.003,0.002,0.001,0.0,0.0,-0.002,-0.001,0.0,-0.001,-0.002,-0.003,-0.003,0.001,-0.001,0.005,0.001,0.002
583,0.008,0.006,0.005,0.004,0.002,0.003,0.001,0.002,0.002,0.002,-0.001,-0.001,0.0,0.002,0.002,0.011,0.005,0.005
584,0.011,0.009,0.007,0.005,0.005,0.004,0.003,0.004,0.005,0.004,0.001,0.001,0.001,0.003,0.006,0.015,0.01,0.01
585,0.012,0.009,0.007,0.004,0.006,0.003,0.003,0.005,0.005,0.004,0.001,0.003,0.001,0.005,0.005,0.012,0.01,0.01
586,0.011,0.008,0.005,0.005,0.005,0.003,0.002,0.005,0.004,0.004,0.002,0.003,0.002,0.005,0.003,0.006,0.009,0.01
587,0.007,0.004,0.001,0.001,0.002,0.002,0.0,0.001,0.002,0.002,0.001,0.001,-0.001,0.003,0.0,0.005,0.007,0.006
588,0.007,0.003,0.001,0.001,0.003,0.002,0.001,0.0,0.002,0.003,0.002,0.0,0.0,0.002,0.001,0.006,0.007,0.004
589,0.009,0.004,0.003,0.002,0.004,0.004,0.003,0.002,0.004,0.004,0.002,0.001,0.002,0.004,0.005,0.009,0.007,0.005
590,0.012,0.007,0.006,0.005,0.007,0.005,0.005,0.005,0.007,0.005,0.002,0.003,0.002,0.005,0.007,0.011,0.008,0.006
591,0.012,0.008,0.006,0.005,0.005,0.004,0.005,0.003,0.006,0.002,0.001,0.001,0.002,0.004,0.005,0.009,0.007,0.006
592,0.011,0.008,0.004,0.004,0.004,0.003,0.003,0.001,0.004,0.001,0.001,0.0,0.001,0.003,0.004,0.006,0.006,0.005
593,0.01,0.006,0.002,0.004,0.003,0.002,0.002,0.001,0.002,0.001,0.003,0.0,0.0,0.004,0.003,0.008,0.004,0.005
594,0.009,0.005,0.003,0.005,0.004,0.003,0.002,0.002,0.003,0.0,0.003,0.0,0.0,0.004,0.003,0.014,0.006,0.006
595,0.008,0.005,0.003,0.003,0.001,0.002,-0.001,-0.001,0.001,-0.002,-0.001,-0.002,-0.002,0.001,0.001,0.015,0.006,0.005
596,0.005,0.002,-0.001,-0.001,-0.003,-0.003,-0.006,-0.005,-0.003,-0.005,-0.006,-0.006,-0.006,-0.002,-0.003,0.014,0.003,0.002
597,0.004,0.001,-0.002,-0.002,-0.004,-0.004,-0.006,-0.006,-0.004,-0.005,-0.007,-0.007,-0.007,-0.003,-0.004,0.012,0.002,0.001
598,0.003,-0.001,-0.003,-0.001,-0.002,-0.003,-0.005,-0.003,-0.002,-0.003,-0.005,-0.005,-0.006,-0.001,-0.002,0.011,0.003,0.001
599,0.005,0.002,0.0,0.003,0.001,0.001,-0.001,0.001,0.002,0.002,0.0,0.0,0.0,0.004,0.003,0.012,0.008,0.006
600,0.007,0.004,0.001,0.005,0.004,0.004,0.002,0.003,0.005,0.005,0.004,0.004,0.004,0.009,0.007,0.016,0.013,0.01
601,0.009,0.005,0.004,0.005,0.006,0.005,0.005,0.005,0.008,0.007,0.007,0.008,0.007,0.01,0.009,0.02,0.015,0.013
602,0.012,0.007,0.008,0.006,0.007,0.006,0.006,0.008,0.009,0.007,0.008,0.009,0.008,0.01,0.01,0.025,0.016,0.014
603,0.012,0.007,0.009,0.006,0.005,0.005,0.004,0.007,0.007,0.005,0.005,0.006,0.005,0.008,0.007,0.023,0.013,0.011
604,0.01,0.006,0.006,0.005,0.003,0.004,0.002,0.005,0.005,0.003,0.002,0.003,0.002,0.005,0.004,0.019,0.01,0.007
605,0.008,0.005,0.005,0.004,0.004,0.004,0.004,0.004,0.005,0.001,0.001,0.001,0.001,0.004,0.003,0.014,0.008,0.005
606,0.008,0.006,0.004,0.004,0.005,0.005,0.004,0.004,0.005,0.001,0.002,0.002,0.001,0.004,0.003,0.014,0.008,0.006
607,0.01,0.007,0.006,0.005,0.005,0.003,0.003,0.004,0.005,0.002,0.002,0.001,0.001,0.004,0.003,0.016,0.009,0.008
608,0.01,0.006,0.006,0.006,0.004,0.003,0.002,0.004,0.005,0.003,0.001,0.002,0.002,0.006,0.004,0.014,0.009,0.009
609,0.01,0.006,0.007,0.007,0.005,0.005,0.003,0.007,0.007,0.006,0.003,0.005,0.005,0.009,0.006,0.018,0.01,0.011
610,0.008,0.004,0.005,0.004,0.005,0.004,0.003,0.006,0.006,0.005,0.003,0.005,0.005,0.008,0.005,0.017,0.009,0.009
611,0.006,0.002,0.0,0.0,0.001,0.001,0.0,0.0,0.002,0.001,-0.001,0.001,0.001,0.005,0.001,0.017,0.005,0.004
612,0.004,0.0,-0.002,-0.001,-0.001,-0.001,-0.002,-0.002,0.0,-0.002,-0.001,-0.002,-0.003,0.002,0.0,0.013,0.003,0.003
613,0.004,0.001,-0.001,0.001,0.0,0.0,-0.001,-0.001,0.001,-0.001,0.0,-0.002,-0.002,0.003,0.001,0.015,0.004,0.004
614,0.005,0.001,0.0,0.001,0.001,0.002,0.0,0.002,0.003,0.001,0.002,0.0,0.0,0.005,0.003,0.019,0.006,0.005
615,0.004,-0.001,-0.002,-0.002,-0.001,-0.001,-0.002,0.001,0.001,-0.002,0.0,-0.001,-0.002,0.003,0.002,0.017,0.003,0.002
616,0.004,-0.001,-0.002,-0.002,-0.002,-0.002,-0.003,0.0,-0.001,-0.002,-0.001,-0.003,-0.004,0.001,0.0,0.014,0.003,0.002
617,0.005,0.002,0.0,0.0,0.0,-0.001,-0.001,0.002,0.001,0.001,0.001,-0.002,-0.002,0.002,0.002,0.018,0.006,0.005
618,0.008,0.005,0.005,0.004,0.004,0.003,0.002,0.004,0.004,0.004,0.005,0.001,0.002,0.005,0.005,0.022,0.009,0.008
619,0.007,0.005,0.006,0.005,0.005,0.004,0.002,0.005,0.005,0.003,0.003,0.001,0.002,0.005,0.004,0.019,0.008,0.006
620,0.008,0.005,0.007,0.005,0.004,0.004,0.002,0.004,0.004,0.002,0.001,0.001,0.001,0.006,0.003,0.012,0.006,0.005
621,0.008,0.005,0.006,0.006,0.004,0.005,0.003,0.005,0.006,0.003,0.002,0.002,0.003,0.007,0.004,0.012,0.008,0.006
622,0.011,0.008,0.008,0.007,0.007,0.007,0.006,0.007,0.009,0.007,0.007,0.006,0.007,0.01,0.009,0.019,0.012,0.011
623,0.011,0.009,0.009,0.007,0.008,0.007,0.006,0.008,0.01,0.008,0.007,0.006,0.008,0.01,0.01,0.024,0.012,0.012
624,0.011,0.008,0.007,0.006,0.005,0.005,0.003,0.004,0.006,0.006,0.004,0.004,0.005,0.008,0.007,0.025,0.01,0.01
625,0.01,0.007,0.005,0.004,0.003,0.003,0.001,0.002,0.004,0.002,0.001,0.003,0.001,0.006,0.003,0.023,0.008,0.008
626,0.007,0.003,0.002,0.002,0.001,0.002,0.0,0.001,0.002,0.0,0.0,0.0,-0.002,0.004,0.001,0.018,0.005,0.005
627,0.005,0.002,0.001,0.002,0.001,0.002,0.001,0.003,0.004,0.001,0.001,0.0,-0.001,0.004,0.001,0.016,0.004,0.003
628,0.004,0.002,0.003,0.002,0.002,0.004,0.002,0.004,0.005,0.003,0.002,0.002,0.001,0.005,0.003,0.016,0.005,0.005
629,0.005,0.003,0.004,0.003,0.004,0.004,0.003,0.005,0.006,0.004,0.004,0.004,0.004,0.007,0.005,0.017,0.008,0.007
630,0.006,0.005,0.004,0.004,0.005,0.005,0.004,0.005,0.007,0.005,0.004,0.003,0.004,0.007,0.006,0.017,0.009,0.008
631,0.01,0.006,0.005,0.006,0.007,0.006,0.005,0.006,0.007,0.005,0.005,0.002,0.004,0.008,0.006,0.018,0.009,0.009
632,0.012,0.009,0.008,0.009,0.008,0.008,0.006,0.008,0.008,0.006,0.006,0.003,0.004,0.009,0.006,0.02,0.011,0.01
633,0.013,0.01,0.009,0.008,0.007,0.007,0.006,0.008,0.007,0.006,0.006,0.004,0.005,0.008,0.007,0.022,0.012,0.011
634,0.009,0.008,0.006,0.003,0.003,0.002,0.003,0.004,0.004,0.004,0.003,0.002,0.002,0.007,0.005,0.018,0.01,0.009
635,0.01,0.006,0.004,0.001,0.003,0.002,0.002,0.003,0.003,0.003,0.003,0.001,0.001,0.008,0.005,0.017,0.008,0.008
636,0.012,0.008,0.005,0.006,0.006,0.006,0.005,0.005,0.007,0.005,0.004,0.002,0.003,0.009,0.007,0.019,0.009,0.008
637,0.014,0.012,0.01,0.01,0.01,0.008,0.005,0.006,0.009,0.006,0.004,0.003,0.003,0.009,0.006,0.023,0.011,0.01
638,0.013,0.011,0.009,0.008,0.008,0.005,0.003,0.004,0.004,0.003,0.002,0.001,0.0,0.006,0.002,0.02,0.009,0.008
639,0.011,0.008,0.007,0.004,0.005,0.001,-0.001,0.002,0.0,0.0,-0.001,-0.002,-0.003,0.002,0.0,0.018,0.007,0.006
640,0.011,0.008,0.007,0.005,0.004,0.003,0.0,0.004,0.001,0.0,0.0,0.0,-0.003,0.003,0.002,0.019,0.008,0.007
641,0.013,0.011,0.009,0.009,0.007,0.007,0.003,0.007,0.004,0.003,0.002,0.001,0.0,0.004,0.004,0.024,0.012,0.01
642,0.013,0.012,0.009,0.01,0.008,0.009,0.006,0.008,0.006,0.006,0.004,0.002,0.001,0.006,0.004,0.022,0.013,0.01
643,0.009,0.007,0.004,0.005,0.004,0.004,0.002,0.003,0.001,0.0,0.0,-0.001,-0.003,0.003,0.001,0.018,0.009,0.006
644,0.004,0.002,0.0,0.0,-0.001,-0.002,-0.003,-0.001,-0.002,-0.004,-0.003,-0.004,-0.006,0.0,-0.002,0.015,0.004,0.002
645,0.003,0.002,0.0,0.0,0.0,-0.001,-0.002,0.0,-0.001,-0.004,-0.003,-0.005,-0.005,0.001,-0.002,0.017,0.002,0.002
646,0.004,0.002,-0.001,-0.001,0.001,0.0,-0.001,0.001,-0.001,-0.003,-0.001,-0.005,-0.004,-0.001,-0.003,0.015,0.0,0.001
647,0.005,0.0,0.001,0.0,0.001,0.001,-0.001,0.002,-0.001,-0.001,0.0,-0.005,-0.004,0.0,-0.003,0.015,0.002,0.0
648,0.005,0.001,0.0,0.0,-0.001,0.001,-0.002,0.001,0.0,-0.001,-0.002,-0.004,-0.004,0.0,-0.002,0.015,0.004,0.002
649,0.008,0.005,0.004,0.003,0.003,0.003,0.0,0.003,0.003,0.002,0.001,0.0,0.0,0.005,0.002,0.021,0.009,0.006
650,0.011,0.009,0.006,0.005,0.007,0.006,0.004,0.006,0.006,0.006,0.005,0.003,0.004,0.009,0.006,0.023,0.012,0.009
651,0.01,0.009,0.008,0.006,0.007,0.006,0.005,0.008,0.006,0.006,0.006,0.004,0.007,0.009,0.008,0.026,0.012,0.01
652,0.009,0.008,0.007,0.004,0.005,0.005,0.003,0.006,0.004,0.005,0.003,0.003,0.003,0.006,0.004,0.021,0.008,0.007
653,0.007,0.005,0.004,0.001,0.001,0.0,0.0,0.002,0.001,0.001,-0.001,-0.001,-0.002,0.001,-0.002,0.016,0.004,0.002
654,0.005,0.002,0.002,0.0,0.0,-0.001,0.0,0.001,0.0,-0.001,-0.002,-0.004,-0.005,0.0,-0.002,0.013,0.002,0.0
655,0.005,0.001,0.001,0.0,0.0,0.0,0.001,0.002,0.001,0.0,-0.001,-0.004,-0.003,0.002,0.0,0.018,0.003,0.003
656,0.004,0.001,-0.001,-0.002,0.002,0.001,0.001,0.003,0.001,0.001,0.0,-0.003,-0.002,0.003,0.001,0.022,0.006,0.005
657,0.005,0.003,0.001,-0.001,0.003,0.002,0.001,0.003,0.002,0.003,0.001,-0.001,0.001,0.005,0.003,0.023,0.008,0.007
658,0.005,0.004,0.002,0.003,0.003,0.003,0.001,0.005,0.005,0.004,0.003,0.001,0.002,0.007,0.005,0.017,0.008,0.008
659,0.005,0.002,0.002,0.005,0.005,0.004,0.003,0.005,0.006,0.005,0.005,0.003,0.004,0.009,0.006,0.012,0.009,0.009
660,0.005,0.002,0.002,0.004,0.006,0.004,0.004,0.007,0.006,0.005,0.004,0.004,0.005,0.01,0.007,0.015,0.012,0.009
661,0.006,0.004,0.005,0.004,0.006,0.006,0.005,0.007,0.005,0.004,0.003,0.004,0.004,0.009,0.007,0.018,0.011,0.009
662,0.005,0.006,0.005,0.006,0.005,0.005,0.003,0.005,0.003,0.0,0.0,0.002,0.001,0.005,0.005,0.018,0.008,0.007
663,0.005,0.005,0.004,0.003,0.003,0.004,0.001,0.003,0.001,-0.001,-0.001,-0.001,-0.003,0.002,0.001,0.012,0.004,0.003
664,0.003,-0.001,-0.001,-0.003,-0.002,-0.002,-0.004,-0.003,-0.004,-0.005,-0.006,-0.008,-0.008,-0.003,-0.006,0.007,0.0,-0.002
665,0.004,-0.003,-0.003,-0.004,-0.003,-0.004,-0.006,-0.003,-0.005,-0.005,-0.006,-0.008,-0.008,-0.002,-0.006,0.008,0.0,-0.002
666,0.005,-0.002,-0.001,-0.002,-0.001,-0.003,-0.004,-0.001,-0.002,-0.004,-0.004,-0.006,-0.004,-0.001,-0.002,0.013,0.002,0.0
667,0.006,0.003,0.003,0.002,0.004,0.002,-0.001,0.003,0.002,-0.001,0.0,-0.001,0.0,0.002,0.002,0.017,0.006,0.004
668,0.005,0.002,0.002,0.001,0.004,0.002,-0.001,0.003,0.002,0.0,0.001,0.0,0.0,0.002,0.002,0.016,0.005,0.003
669,0.002,0.001,-0.001,0.0,0.001,-0.001,-0.003,0.001,-0.002,-0.002,-0.003,-0.003,-0.003,0.0,-0.001,0.014,0.003,0.001
670,0.001,-0.001,-0.003,-0.003,-0.002,-0.003,-0.005,-0.001,-0.004,-0.003,-0.005,-0.005,-0.006,-0.001,-0.004,0.007,0.001,-0.001
671,-0.003,-0.004,-0.006,-0.004,-0.004,-0.003,-0.007,-0.004,-0.005,-0.006,-0.006,-0.007,-0.009,-0.003,-0.007,0.004,-0.002,-0.003
672,-0.003,-0.004,-0.005,-0.004,-0.005,-0.002,-0.005,-0.004,-0.003,-0.005,-0.004,-0.006,-0.009,-0.003,-0.006,0.005,-0.002,-0.003
673,-0.001,-0.002,-0.003,-0.001,-0.003,-0.001,-0.003,-0.001,-0.001,-0.004,-0.003,-0.005,-0.007,-0.002,-0.005,0.009,-0.001,-0.003
674,0.001,0.001,-0.002,-0.001,-0.001,0.0,-0.003,0.001,-0.002,-0.004,-0.004,-0.005,-0.006,-0.001,-0.003,0.015,0.001,-0.002
675,0.003,-0.001,-0.003,-0.003,-0.001,-0.002,-0.006,-0.001,-0.005,-0.005,-0.006,-0.008,-0.008,-0.002,-0.003,0.014,0.001,0.0
676,0.004,-0.001,-0.003,-0.003,-0.002,-0.004,-0.005,-0.002,-0.005,-0.006,-0.006,-0.007,-0.007,-0.003,-0.002,0.012,0.002,0.003
677,0.005,0.0,-0.002,-0.002,-0.002,-0.003,-0.004,0.0,-0.002,-0.005,-0.004,-0.004,-0.004,0.0,0.001,0.011,0.002,0.006
678,0.003,-0.002,-0.005,-0.004,-0.004,-0.003,-0.005,-0.002,-0.002,-0.005,-0.005,-0.003,-0.004,0.001,-0.001,0.011,0.002,0.005
679,-0.001,-0.006,-0.008,-0.008,-0.007,-0.007,-0.008,-0.005,-0.005,-0.008,-0.007,-0.006,-0.008,-0.003,-0.005,0.007,-0.002,0.0
680,-0.002,-0.007,-0.008,-0.008,-0.008,-0.008,-0.009,-0.006,-0.006,-0.009,-0.009,-0.009,-0.01,-0.005,-0.007,0.005,-0.003,-0.005
681,-0.001,-0.004,-0.005,-0.006,-0.005,-0.006,-0.006,-0.004,-0.004,-0.009,-0.008,-0.009,-0.01,-0.003,-0.005,0.007,-0.002,-0.005
682,0.005,0.002,0.0,0.001,0.0,-0.001,-0.002,0.001,-0.001,-0.002,-0.004,-0.005,-0.005,0.001,0.0,0.014,0.003,0.0
683,0.007,0.007,0.004,0.005,0.004,0.003,0.002,0.005,0.001,0.001,0.0,0.0,-0.001,0.005,0.004,0.017,0.006,0.005
684,0.007,0.007,0.005,0.005,0.006,0.005,0.003,0.004,0.004,0.004,0.004,0.003,0.002,0.007,0.006,0.016,0.007,0.008
685,0.008,0.006,0.004,0.004,0.005,0.002,0.002,0.002,0.003,0.002,0.002,0.002,0.0,0.006,0.003,0.018,0.006,0.007
686,0.005,0.0,-0.001,-0.001,-0.001,-0.001,-0.003,-0.001,0.0,-0.001,-0.003,-0.003,-0.003,0.001,-0.002,0.016,0.002,0.003
687,0.0,-0.002,-0.005,-0.004,-0.005,-0.004,-0.006,-0.002,-0.003,-0.005,-0.005,-0.006,-0.006,-0.003,-0.005,0.011,-0.001,-0.001
688,-0.002,-0.004,-0.006,-0.006,-0.005,-0.005,-0.008,-0.005,-0.005,-0.007,-0.006,-0.008,-0.007,-0.002,-0.006,0.006,-0.002,-0.002
689,0.0,-0.002,-0.002,-0.002,0.0,-0.003,-0.006,-0.004,-0.004,-0.006,-0.005,-0.006,-0.006,0.0,-0.003,0.008,0.001,0.001
690,0.004,0.001,0.001,0.0,0.002,0.0,-0.004,0.0,-0.002,-0.002,-0.002,-0.002,-0.003,0.002,-0.001,0.012,0.007,0.006
691,0.008,0.003,0.004,0.004,0.005,0.004,0.001,0.005,0.002,0.002,0.003,0.002,0.002,0.008,0.003,0.015,0.01,0.009
692,0.009,0.006,0.005,0.004,0.006,0.004,0.003,0.006,0.004,0.004,0.004,0.002,0.002,0.009,0.005,0.014,0.009,0.007
693,0.007,0.007,0.004,0.004,0.003,0.003,0.003,0.004,0.003,0.002,0.002,0.0,0.001,0.006,0.005,0.015,0.006,0.003
694,0.007,0.006,0.004,0.004,0.004,0.004,0.001,0.004,0.003,0.002,0.001,0.0,0.001,0.004,0.005,0.016,0.005,0.004
695,0.007,0.005,0.003,0.004,0.005,0.002,0.001,0.003,0.002,0.002,0.001,0.0,0.002,0.006,0.004,0.015,0.004,0.006
696,0.007,0.005,0.003,0.002,0.003,-0.001,-0.001,0.002,0.0,0.001,0.0,-0.002,-0.001,0.003,0.002,0.012,0.001,0.004
697,0.003,0.003,0.0,-0.003,-0.004,-0.005,-0.005,-0.004,-0.005,-0.005,-0.007,-0.009,-0.009,-0.004,-0.006,0.01,-0.005,-0.003
698,0.001,0.0,-0.002,-0.005,-0.005,-0.005,-0.006,-0.004,-0.006,-0.007,-0.008,-0.01,-0.011,-0.007,-0.008,0.011,-0.006,-0.006
699,0.003,0.002,0.0,-0.003,-0.002,-0.001,-0.003,-0.001,-0.002,-0.004,-0.005,-0.006,-0.007,-0.003,-0.004,0.014,-0.001,-0.003
700,0.003,0.003,0.002,0.001,0.001,0.001,0.001,0.0,0.002,0.0,-0.001,0.0,-0.002,0.003,0.001,0.011,0.002,0.0
701,0.002,0.001,0.0,0.001,0.0,0.0,0.001,-0.001,0.002,0.001,-0.001,-0.001,-0.002,0.002,0.0,0.006,0.002,0.001
702,0.003,0.0,-0.002,0.0,-0.002,-0.002,-0.002,-0.002,0.0,-0.001,-0.002,-0.004,-0.005,0.001,-0.001,0.008,0.002,0.002
703,0.008,0.001,-0.001,0.001,0.0,0.0,-0.003,0.0,0.0,-0.001,-0.003,-0.004,-0.005,0.001,0.001,0.013,0.003,0.003
704,0.009,0.003,0.002,0.001,0.001,0.001,-0.003,0.001,-0.001,-0.001,-0.003,-0.002,-0.004,0.002,0.001,0.015,0.006,0.003
705,0.004,0.001,0.0,-0.002,-0.002,-0.002,-0.004,-0.001,-0.004,-0.003,-0.004,-0.004,-0.007,0.0,0.0,0.009,0.004,0.001
706,0.003,0.001,-0.001,-0.003,-0.003,-0.004,-0.005,-0.001,-0.005,-0.003,-0.004,-0.005,-0.005,0.0,-0.001,0.006,0.002,0.001
707,0.003,0.001,0.0,0.0,0.0,-0.002,-0.003,0.001,-0.003,0.0,-0.002,-0.004,-0.003,0.001,0.002,0.01,0.002,0.002
708,0.006,0.003,0.004,0.003,0.005,0.002,0.002,0.005,0.002,0.003,0.0,0.0,0.0,0.004,0.004,0.016,0.005,0.005
709,0.008,0.006,0.005,0.005,0.006,0.004,0.003,0.006,0.003,0.002,0.0,0.001,0.0,0.005,0.004,0.015,0.006,0.006
710,0.011,0.008,0.008,0.007,0.008,0.003,0.004,0.007,0.004,0.002,0.002,0.002,0.001,0.005,0.003,0.011,0.007,0.007
711,0.011,0.009,0.009,0.009,0.009,0.005,0.006,0.009,0.005,0.004,0.006,0.004,0.004,0.007,0.004,0.016,0.009,0.011
712,0.009,0.008,0.006,0.007,0.005,0.005,0.004,0.006,0.003,0.003,0.004,0.004,0.005,0.008,0.004,0.019,0.009,0.011
713,0.007,0.006,0.004,0.006,0.004,0.004,0.002,0.003,0.002,0.0,0.001,0.002,0.003,0.007,0.004,0.015,0.007,0.008
714,0.007,0.004,0.004,0.006,0.004,0.004,0.003,0.004,0.004,0.001,0.0,0.001,0.0,0.006,0.003,0.014,0.006,0.007
715,0.008,0.004,0.003,0.003,0.004,0.004,0.004,0.004,0.004,0.002,0.001,0.001,0.0,0.007,0.005,0.014,0.007,0.008
716,0.005,0.003,0.0,-0.001,0.001,0.002,0.0,0.002,0.003,0.002,0.0,0.003,0.0,0.005,0.003,0.014,0.006,0.006
717,0.004,0.003,0.0,-0.002,0.0,-0.001,-0.003,0.001,0.001,-0.001,-0.001,0.002,0.0,0.004,0.002,0.012,0.008,0.004
718,0.003,0.002,0.001,-0.001,-0.001,-0.002,-0.003,0.0,-0.001,-0.002,-0.001,0.0,-0.002,0.004,0.001,0.014,0.009,0.007
719,0.004,0.005,0.003,0.001,-0.001,0.001,-0.001,0.001,0.002,-0.001,-0.001,-0.001,-0.002,0.005,0.004,0.013,0.011,0.01
720,0.004,0.003,0.002,0.002,0.0,0.002,-0.001,0.001,0.003,0.001,-0.001,0.001,-0.003,0.005,0.004,0.01,0.008,0.008
721,0.007,0.004,0.002,0.004,0.003,0.004,0.003,0.004,0.006,0.005,0.004,0.003,0.001,0.008,0.006,0.01,0.007,0.008
722,0.007,0.004,0.003,0.004,0.005,0.005,0.004,0.005,0.006,0.005,0.005,0.004,0.002,0.008,0.006,0.012,0.006,0.007
723,0.009,0.006,0.003,0.004,0.004,0.004,0.003,0.005,0.007,0.006,0.003,0.001,0.001,0.007,0.005,0.012,0.006,0.005
724,0.009,0.005,0.002,0.003,0.005,0.002,0.003,0.004,0.004,0.005,0.001,0.0,-0.001,0.004,0.003,0.011,0.006,0.003
725,0.009,0.005,0.005,0.005,0.006,0.003,0.004,0.007,0.005,0.007,0.004,0.002,0.003,0.006,0.004,0.012,0.006,0.005
726,0.006,0.006,0.004,0.002,0.005,0.004,0.003,0.006,0.005,0.004,0.004,0.001,0.003,0.007,0.005,0.014,0.006,0.007
727,0.008,0.007,0.004,0.002,0.004,0.004,0.002,0.003,0.004,0.001,0.002,0.0,0.001,0.005,0.005,0.015,0.006,0.006
728,0.008,0.005,0.002,0.001,0.002,0.002,-0.001,-0.001,0.001,-0.001,0.0,-0.001,-0.002,0.002,0.003,0.009,0.006,0.003
729,0.005,0.002,-0.002,0.001,0.001,-0.002,-0.004,-0.004,-0.003,-0.002,-0.004,-0.005,-0.005,0.0,-0.002,0.004,0.003,-0.001
730,0.001,0.0,-0.004,-0.002,-0.002,-0.006,-0.006,-0.004,-0.006,-0.005,-0.006,-0.008,-0.007,-0.003,-0.005,0.003,-0.002,-0.004
731,0.003,0.001,0.0,0.0,-0.002,-0.006,-0.003,-0.003,-0.004,-0.005,-0.004,-0.006,-0.007,-0.001,-0.004,0.006,-0.003,-0.005
732,0.006,0.002,0.0,-0.001,0.0,-0.003,-0.001,0.0,-0.001,-0.002,-0.002,-0.002,-0.004,0.002,0.002,0.009,0.0,-0.001
733,0.004,0.001,-0.001,0.0,0.0,-0.001,0.001,0.001,0.002,0.003,0.002,0.001,0.002,0.006,0.005,0.012,0.007,0.005
734,0.002,-0.002,-0.003,-0.002,-0.001,0.001,0.002,0.003,0.004,0.004,0.003,0.003,0.005,0.008,0.006,0.009,0.01,0.009
735,0.0,-0.001,0.001,0.0,-0.002,0.002,0.002,0.001,0.006,0.003,0.003,0.002,0.004,0.008,0.004,0.005,0.009,0.007
736,0.002,0.0,0.001,-0.001,-0.002,-0.001,-0.001,-0.003,0.001,-0.004,-0.003,-0.002,-0.002,0.003,0.0,0.003,0.004,0.003
737,0.005,0.002,0.001,-0.003,-0.002,-0.005,-0.003,-0.003,-0.003,-0.006,-0.004,-0.004,-0.004,0.002,-0.002,0.006,0.002,0.004
738,0.008,0.003,-0.001,-0.003,0.001,-0.005,-0.001,0.0,-0.002,-0.004,-0.001,-0.001,-0.001,0.004,0.002,0.011,0.005,0.009
739,0.008,0.003,0.0,-0.002,0.001,-0.002,-0.001,0.001,0.001,-0.002,0.0,-0.002,0.0,0.005,0.005,0.011,0.008,0.011
740,0.003,0.0,-0.003,-0.003,-0.003,-0.004,-0.007,-0.004,-0.004,-0.006,-0.007,-0.009,-0.006,-0.003,-0.001,0.006,0.002,0.003
741,0.003,0.0,-0.002,-0.003,-0.004,-0.006,-0.008,-0.006,-0.006,-0.007,-0.009,-0.011,-0.01,-0.007,-0.006,0.002,-0.002,-0.003
742,0.006,0.005,0.0,0.001,0.0,-0.003,-0.004,-0.002,-0.003,-0.005,-0.006,-0.006,-0.008,-0.002,-0.006,0.004,0.0,-0.004
743,0.008,0.005,0.001,0.001,0.003,0.0,0.0,0.0,-0.001,-0.003,-0.005,-0.002,-0.006,0.002,-0.004,0.002,-0.001,-0.003
744,0.008,0.003,-0.003,-0.001,0.0,-0.003,-0.003,-0.003,-0.004,-0.004,-0.009,-0.006,-0.009,-0.001,-0.006,-0.002,-0.004,-0.002
745,0.009,0.0,-0.002,-0.002,-0.001,-0.003,-0.005,-0.002,-0.003,-0.003,-0.008,-0.007,-0.009,-0.003,-0.006,-0.002,-0.003,-0.003
746,0.01,-0.001,0.0,-0.001,-0.001,-0.002,-0.006,0.001,-0.002,-0.001,-0.003,-0.005,-0.006,-0.001,-0.002,0.003,0.0,-0.001
747,0.008,0.001,0.002,0.0,0.002,0.002,-0.001,0.005,0.001,0.001,0.003,0.001,0.001,0.005,0.002,0.01,0.005,0.001
748,0.004,0.002,0.002,-0.001,0.003,0.004,0.001,0.004,0.0,0.002,0.003,0.003,0.003,0.007,0.004,0.012,0.005,0.003
749,0.001,0.0,0.0,-0.001,0.001,0.002,0.0,0.001,-0.001,0.001,0.001,0.002,0.003,0.004,0.002,0.01,0.003,0.001
750,0.0,0.0,0.0,0.0,0.0,0.0,0.0,0.0,0.0,0.0,0.0,0.0,0.0,0.0,0.0,0.0,0.0,0.0
190,,,,,,,,,,,,,,,,-0.63,-0.102,0.006
191,,,,,,,,,,,,,,,,-1.151,0.115,0.649
192,,,,,,,,,,,,,,,,-1.216,0.79,1.685
193,,,,,,,,,,,,,,,,-0.669,1.655,2.533
194,,,,,,,,,,,,,,,,-0.273,2.274,2.366
195,,,,,,,,,,,,,,,,0.037,2.39,1.678
196,,,,,,,,,,,,,,,,0.468,2.366,0.971
197,,,,,,,,,,,,,,,,0.807,2.303,0.588
198,,,,,,,,,,,,,,,,1.157,2.029,0.489
199,,,,,,,,,,,,,,,,1.038,1.616,0.391
200,,,,,,,,,,,,,,,,0.927,1.248,0.32
201,,,,,,,,,,,,,,,,1.061,0.969,0.258
202,,,,,,,,,,,,,,,,1.227,0.905,0.215
203,,,,,,,,,,,,,,,,1.476,0.821,0.188
204,,,,,,,,,,,,,,,,1.513,0.746,0.165
205,,,,,,,,,,,,,,,,1.449,0.692,0.146
206,,,,,,,,,,,,,,,,1.524,0.646,0.128
207,,,,,,,,,,,,,,,,1.376,0.617,0.116
208,,,,,,,,,,,,,,,,1.116,0.598,0.107
209,,,,,,,,,,,,,,,,1.265,0.583,0.101
210,,,,,,,,,,,,,,,,1.237,0.575,0.095
211,,,,,,,,,,,,,,,,1.473,0.566,0.091
212,,,,,,,,,,,,,,,,1.563,0.565,0.087
213,,,,,,,,,,,,,,,,1.472,0.56,0.08
214,,,,,,,,,,,,,,,,1.439,0.553,0.075
215,,,,,,,,,,,,,,,,1.203,0.55,0.07
216,,,,,,,,,,,,,,,,1.17,0.549,0.068
217,,,,,,,,,,,,,,,,1.186,0.554,0.066
218,,,,,,,,,,,,,,,,1.227,0.562,0.065
219,,,,,,,,,,,,,,,,1.252,0.563,0.064
751,,,,,,,,,,,,,,,,-0.001,0.001,0.0
752,,,,,,,,,,,,,,,,0.005,0.003,0.003
753,,,,,,,,,,,,,,,,0.012,0.002,0.0
754,,,,,,,,,,,,,,,,0.003,0.001,0.0
755,,,,,,,,,,,,,,,,-0.001,0.001,-0.001
756,,,,,,,,,,,,,,,,0.002,0.004,0.001
757,,,,,,,,,,,,,,,,0.014,0.007,0.005
758,,,,,,,,,,,,,,,,0.016,0.01,0.011
759,,,,,,,,,,,,,,,,0.018,0.013,0.013
760,,,,,,,,,,,,,,,,0.016,0.015,0.014
761,,,,,,,,,,,,,,,,0.014,0.013,0.013
762,,,,,,,,,,,,,,,,0.01,0.008,0.008
763,,,,,,,,,,,,,,,,0.006,0.005,0.006
764,,,,,,,,,,,,,,,,0.007,0.005,0.007
765,,,,,,,,,,,,,,,,0.006,0.006,0.005
766,,,,,,,,,,,,,,,,0.007,0.006,0.004
767,,,,,,,,,,,,,,,,0.006,0.006,0.004
768,,,,,,,,,,,,,,,,0.012,0.004,0.004
769,,,,,,,,,,,,,,,,0.013,0.0,0.001
770,,,,,,,,,,,,,,,,0.009,-0.002,-0.001
771,,,,,,,,,,,,,,,,0.0,0.0,0.0
772,,,,,,,,,,,,,,,,0.001,0.001,0.001
773,,,,,,,,,,,,,,,,0.004,0.0,-0.003
774,,,,,,,,,,,,,,,,0.002,-0.002,-0.005
775,,,,,,,,,,,,,,,,0.001,-0.004,-0.005
776,,,,,,,,,,,,,,,,0.006,0.0,0.0
777,,,,,,,,,,,,,,,,0.014,0.002,0.001
778,,,,,,,,,,,,,,,,0.016,0.004,0.003
779,,,,,,,,,,,,,,,,0.015,0.007,0.004
780,,,,,,,,,,,,,,,,0.012,0.01,0.007
781,,,,,,,,,,,,,,,,0.007,0.008,0.008
782,,,,,,,,,,,,,,,,0.006,0.001,0.001
783,,,,,,,,,,,,,,,,0.011,-0.004,-0.008
784,,,,,,,,,,,,,,,,0.015,-0.006,-0.009
785,,,,,,,,,,,,,,,,0.005,-0.007,-0.007
786,,,,,,,,,,,,,,,,-0.002,-0.005,-0.006
787,,,,,,,,,,,,,,,,-0.005,0.0,-0.005
788,,,,,,,,,,,,,,,,0.008,0.007,0.002
789,,,,,,,,,,,,,,,,0.016,0.015,0.011
790,,,,,,,,,,,,,,,,0.023,0.015,0.016
791,,,,,,,,,,,,,,,,0.011,0.011,0.01
792,,,,,,,,,,,,,,,,0.006,0.006,0.003
793,,,,,,,,,,,,,,,,0.004,0.003,-0.003
794,,,,,,,,,,,,,,,,0.003,-0.005,-0.008
795,,,,,,,,,,,,,,,,-0.001,-0.005,-0.009
796,,,,,,,,,,,,,,,,0.002,-0.001,-0.002
797,,,,,,,,,,,,,,,,0.012,0.002,0.005
798,,,,,,,,,,,,,,,,0.016,0.005,0.007
799,,,,,,,,,,,,,,,,0.007,0.002,0.002
800,,,,,,,,,,,,,,,,-0.005,-0.005,-0.003
801,,,,,,,,,,,,,,,,0.002,-0.007,-0.006
802,,,,,,,,,,,,,,,,0.005,-0.002,-0.003
803,,,,,,,,,,,,,,,,0.011,0.005,0.0
804,,,,,,,,,,,,,,,,0.01,0.004,0.0
805,,,,,,,,,,,,,,,,0.015,0.002,0.0
806,,,,,,,,,,,,,,,,0.013,0.0,0.0
807,,,,,,,,,,,,,,,,0.018,0.007,0.006
808,,,,,,,,,,,,,,,,0.023,0.008,0.009
809,,,,,,,,,,,,,,,,0.013,0.012,0.015
810,,,,,,,,,,,,,,,,0.002,0.011,0.011
811,,,,,,,,,,,,,,,,0.011,0.015,0.012
812,,,,,,,,,,,,,,,,0.023,0.007,0.009
813,,,,,,,,,,,,,,,,0.016,0.003,0.003
814,,,,,,,,,,,,,,,,0.004,-0.001,-0.004
815,,,,,,,,,,,,,,,,0.016,0.009,0.003
816,,,,,,,,,,,,,,,,0.026,0.016,0.01
817,,,,,,,,,,,,,,,,0.027,0.017,0.015
818,,,,,,,,,,,,,,,,0.024,0.015,0.016
819,,,,,,,,,,,,,,,,0.019,0.011,0.012
820,,,,,,,,,,,,,,,,0.016,0.01,0.009
821,,,,,,,,,,,,,,,,0.023,0.006,0.009
822,,,,,,,,,,,,,,,,0.027,0.009,0.01
823,,,,,,,,,,,,,,,,0.023,0.009,0.009
824,,,,,,,,,,,,,,,,0.013,0.006,0.008
825,,,,,,,,,,,,,,,,0.008,0.0,0.005
826,,,,,,,,,,,,,,,,0.004,0.002,0.004
827,,,,,,,,,,,,,,,,0.014,0.009,0.008
828,,,,,,,,,,,,,,,,0.018,0.013,0.013
829,,,,,,,,,,,,,,,,0.017,0.014,0.014
830,,,,,,,,,,,,,,,,0.007,0.009,0.006
831,,,,,,,,,,,,,,,,0.009,0.004,0.003
832,,,,,,,,,,,,,,,,0.01,-0.001,-0.001
833,,,,,,,,,,,,,,,,0.003,-0.005,-0.005
834,,,,,,,,,,,,,,,,-0.002,-0.002,-0.003
835,,,,,,,,,,,,,,,,-0.002,0.003,0.006
836,,,,,,,,,,,,,,,,-0.005,0.01,0.011
837,,,,,,,,,,,,,,,,0.001,0.01,0.009
838,,,,,,,,,,,,,,,,0.003,0.001,-0.002
839,,,,,,,,,,,,,,,,0.01,-0.006,-0.007
840,,,,,,,,,,,,,,,,-0.003,-0.004,-0.006
