,0,3,4,5,6,7,8,9,1,2
190,0.081,-0.268,0.083,-0.012,-0.469,-0.348,-0.477,0.138,-0.032,0.008
191,0.759,0.025,0.503,0.405,-0.316,-0.746,-0.532,0.84,0.605,0.634
192,1.681,0.85,1.344,1.227,0.232,-0.626,-0.082,1.855,1.643,1.526
193,2.557,1.827,2.21,1.964,1.29,0.061,0.629,2.601,2.465,2.56
194,2.447,2.279,2.564,2.365,1.73,0.625,0.966,2.349,2.333,2.612
195,1.884,1.899,2.295,2.089,1.706,0.726,1.213,1.668,1.615,2.045
196,1.186,1.437,1.722,1.707,1.663,0.831,1.261,0.945,0.941,1.337
197,0.682,1.007,1.214,1.355,1.424,0.737,1.237,0.542,0.616,0.741
198,0.57,0.74,0.871,1.037,1.408,1.027,1.175,0.42,0.52,0.637
199,0.442,0.645,0.859,1.047,1.239,1.302,1.315,0.357,0.427,0.504
200,0.369,0.519,0.778,0.98,1.239,1.538,1.334,0.295,0.355,0.414
201,0.299,0.456,0.657,0.857,1.181,1.566,1.243,0.242,0.292,0.353
202,0.252,0.422,0.581,0.754,1.13,1.235,1.174,0.198,0.243,0.305
203,0.213,0.389,0.519,0.693,1.035,1.278,1.117,0.164,0.205,0.273
204,0.183,0.351,0.484,0.66,0.993,1.168,1.104,0.139,0.176,0.242
205,0.162,0.316,0.464,0.621,0.911,1.206,1.129,0.121,0.16,0.216
206,0.145,0.292,0.453,0.593,0.899,1.156,1.135,0.106,0.145,0.2
207,0.132,0.27,0.44,0.58,0.891,1.017,1.145,0.098,0.133,0.187
208,0.116,0.265,0.422,0.567,0.87,1.006,1.125,0.088,0.122,0.176
209,0.106,0.255,0.404,0.558,0.84,0.971,1.063,0.081,0.119,0.169
210,0.097,0.257,0.391,0.54,0.824,0.961,1.064,0.072,0.114,0.162
211,0.089,0.249,0.382,0.529,0.823,0.889,1.05,0.065,0.106,0.158
212,0.084,0.235,0.377,0.518,0.823,0.88,1.047,0.062,0.105,0.155
213,0.081,0.227,0.37,0.515,0.814,0.887,1.044,0.057,0.104,0.148
214,0.08,0.215,0.364,0.514,0.789,0.889,1.024,0.056,0.103,0.143
215,0.077,0.212,0.353,0.505,0.78,0.895,1.028,0.053,0.098,0.136
216,0.072,0.207,0.345,0.496,0.779,0.853,1.02,0.048,0.091,0.131
217,0.068,0.206,0.341,0.491,0.775,0.906,1.022,0.046,0.087,0.129
218,0.067,0.208,0.343,0.498,0.777,0.96,1.024,0.045,0.088,0.131
219,0.064,0.203,0.344,0.495,0.767,0.964,1.013,0.042,0.085,0.131
220,0.063,0.202,0.345,0.495,0.769,0.971,1.01,0.039,0.084,0.128
221,0.06,0.198,0.348,0.494,0.773,0.954,1.021,0.037,0.082,0.126
222,0.058,0.197,0.35,0.497,0.778,0.947,1.04,0.035,0.078,0.124
223,0.057,0.199,0.357,0.509,0.793,0.96,1.069,0.034,0.078,0.126
224,0.055,0.199,0.36,0.518,0.81,0.957,1.091,0.032,0.077,0.125
225,0.053,0.201,0.365,0.53,0.83,0.973,1.111,0.03,0.078,0.125
226,0.051,0.202,0.37,0.538,0.852,1.008,1.137,0.029,0.078,0.124
227,0.05,0.203,0.374,0.545,0.872,1.043,1.168,0.027,0.077,0.123
228,0.048,0.201,0.378,0.551,0.888,1.078,1.2,0.025,0.076,0.122
229,0.047,0.198,0.38,0.556,0.897,1.086,1.23,0.024,0.075,0.122
230,0.048,0.197,0.383,0.56,0.899,1.082,1.236,0.024,0.075,0.122
231,0.047,0.196,0.381,0.557,0.894,1.074,1.227,0.025,0.075,0.122
232,0.046,0.196,0.378,0.552,0.887,1.074,1.21,0.024,0.074,0.121
233,0.044,0.194,0.373,0.546,0.879,1.076,1.194,0.021,0.072,0.118
234,0.042,0.19,0.368,0.539,0.868,1.059,1.181,0.02,0.071,0.116
235,0.04,0.185,0.361,0.53,0.856,1.03,1.159,0.018,0.068,0.113
236,0.038,0.181,0.355,0.519,0.839,0.998,1.135,0.018,0.067,0.11
237,0.037,0.177,0.346,0.504,0.816,0.976,1.102,0.018,0.065,0.108
238,0.035,0.17,0.334,0.487,0.788,0.944,1.068,0.016,0.062,0.104
239,0.033,0.163,0.321,0.468,0.759,0.901,1.032,0.015,0.06,0.101
240,0.032,0.154,0.306,0.446,0.729,0.856,0.988,0.014,0.057,0.096
241,0.031,0.145,0.292,0.426,0.697,0.819,0.943,0.014,0.054,0.091
242,0.031,0.137,0.277,0.404,0.664,0.793,0.899,0.014,0.051,0.086
243,0.029,0.128,0.262,0.383,0.627,0.76,0.852,0.013,0.048,0.081
244,0.028,0.121,0.248,0.36,0.588,0.716,0.802,0.013,0.047,0.078
245,0.026,0.111,0.23,0.335,0.549,0.669,0.746,0.012,0.044,0.074
246,0.024,0.102,0.213,0.309,0.51,0.623,0.689,0.011,0.04,0.068
247,0.023,0.094,0.196,0.285,0.473,0.581,0.635,0.009,0.036,0.062
248,0.022,0.088,0.183,0.265,0.436,0.54,0.585,0.009,0.034,0.057
249,0.022,0.082,0.17,0.245,0.402,0.5,0.538,0.01,0.033,0.055
250,0.022,0.075,0.156,0.224,0.369,0.46,0.492,0.009,0.032,0.052
251,0.02,0.069,0.143,0.206,0.338,0.427,0.451,0.008,0.029,0.048
252,0.018,0.062,0.133,0.192,0.314,0.399,0.419,0.007,0.027,0.044
253,0.017,0.057,0.125,0.179,0.296,0.376,0.393,0.006,0.025,0.042
254,0.016,0.055,0.12,0.171,0.283,0.365,0.374,0.006,0.025,0.041
255,0.015,0.054,0.116,0.166,0.273,0.357,0.363,0.006,0.024,0.04
256,0.014,0.054,0.114,0.164,0.27,0.353,0.359,0.006,0.024,0.039
257,0.014,0.052,0.114,0.165,0.271,0.352,0.361,0.006,0.025,0.039
258,0.014,0.051,0.115,0.165,0.274,0.352,0.367,0.005,0.024,0.038
259,0.013,0.053,0.116,0.169,0.279,0.36,0.377,0.004,0.023,0.037
260,0.014,0.055,0.12,0.174,0.286,0.37,0.391,0.004,0.024,0.038
261,0.014,0.056,0.125,0.182,0.298,0.381,0.407,0.004,0.024,0.038
262,0.014,0.058,0.13,0.191,0.313,0.398,0.427,0.004,0.025,0.04
263,0.014,0.06,0.136,0.199,0.328,0.419,0.45,0.004,0.025,0.042
264,0.015,0.064,0.144,0.211,0.347,0.443,0.476,0.003,0.027,0.044
265,0.015,0.068,0.152,0.223,0.367,0.469,0.506,0.003,0.028,0.046
266,0.014,0.071,0.16,0.236,0.387,0.491,0.537,0.003,0.029,0.048
267,0.014,0.076,0.17,0.25,0.409,0.516,0.57,0.003,0.031,0.052
268,0.014,0.082,0.179,0.264,0.432,0.541,0.602,0.003,0.032,0.054
269,0.015,0.088,0.189,0.279,0.457,0.567,0.638,0.003,0.034,0.058
270,0.016,0.093,0.2,0.296,0.485,0.6,0.677,0.004,0.035,0.06
271,0.017,0.098,0.211,0.312,0.514,0.631,0.716,0.004,0.038,0.062
272,0.019,0.102,0.223,0.329,0.542,0.665,0.756,0.005,0.04,0.065
273,0.019,0.107,0.235,0.346,0.57,0.695,0.796,0.005,0.041,0.067
274,0.018,0.113,0.246,0.363,0.596,0.721,0.837,0.003,0.042,0.071
275,0.017,0.119,0.258,0.383,0.627,0.754,0.883,0.002,0.042,0.074
276,0.017,0.126,0.271,0.402,0.658,0.791,0.927,0.002,0.044,0.077
277,0.019,0.133,0.285,0.422,0.691,0.83,0.971,0.003,0.047,0.081
278,0.02,0.14,0.298,0.442,0.723,0.87,1.012,0.004,0.049,0.086
279,0.019,0.147,0.311,0.461,0.755,0.908,1.058,0.003,0.051,0.089
280,0.02,0.154,0.326,0.483,0.79,0.941,1.107,0.003,0.053,0.093
281,0.022,0.161,0.341,0.507,0.827,0.986,1.159,0.005,0.056,0.096
282,0.024,0.166,0.355,0.529,0.862,1.022,1.209,0.006,0.058,0.1
283,0.026,0.173,0.369,0.55,0.895,1.072,1.254,0.006,0.061,0.104
284,0.026,0.18,0.383,0.571,0.929,1.11,1.3,0.005,0.064,0.108
285,0.026,0.188,0.398,0.593,0.966,1.137,1.341,0.005,0.066,0.111
286,0.025,0.194,0.412,0.615,1.006,1.164,1.386,0.005,0.068,0.114
287,0.025,0.2,0.425,0.635,1.038,1.193,1.432,0.005,0.069,0.117
288,0.025,0.208,0.439,0.655,1.069,1.241,1.478,0.005,0.071,0.123
289,0.026,0.216,0.454,0.676,1.101,1.287,1.521,0.005,0.073,0.126
290,0.027,0.223,0.469,0.698,1.134,1.313,1.561,0.005,0.075,0.13
291,0.029,0.23,0.485,0.719,1.167,1.336,1.596,0.006,0.078,0.135
292,0.029,0.237,0.497,0.74,1.197,1.363,1.619,0.006,0.079,0.138
293,0.029,0.243,0.508,0.759,1.223,1.413,1.646,0.006,0.081,0.142
294,0.029,0.249,0.52,0.778,1.252,1.46,1.682,0.005,0.084,0.145
295,0.03,0.255,0.534,0.796,1.283,1.463,1.723,0.005,0.085,0.149
296,0.031,0.261,0.549,0.816,1.316,1.482,1.75,0.006,0.088,0.153
297,0.032,0.267,0.564,0.836,1.353,1.506,1.77,0.006,0.09,0.157
298,0.032,0.273,0.577,0.858,1.379,1.555,1.794,0.006,0.092,0.161
299,0.033,0.282,0.591,0.88,1.399,1.624,1.823,0.007,0.096,0.166
300,0.033,0.29,0.601,0.897,1.409,1.623,1.84,0.006,0.098,0.17
301,0.032,0.297,0.613,0.912,1.432,1.604,1.835,0.006,0.1,0.173
302,0.034,0.302,0.624,0.925,1.453,1.605,1.809,0.006,0.103,0.175
303,0.035,0.306,0.632,0.935,1.472,1.633,1.787,0.005,0.104,0.178
304,0.036,0.311,0.641,0.948,1.477,1.679,1.788,0.006,0.105,0.18
305,0.036,0.315,0.65,0.959,1.476,1.748,1.807,0.006,0.106,0.182
306,0.035,0.319,0.659,0.973,1.494,1.739,1.822,0.005,0.106,0.184
307,0.035,0.324,0.668,0.984,1.517,1.696,1.834,0.005,0.107,0.187
308,0.036,0.329,0.678,0.997,1.542,1.703,1.83,0.005,0.109,0.19
309,0.038,0.332,0.685,1.011,1.567,1.698,1.836,0.006,0.11,0.192
310,0.039,0.334,0.69,1.019,1.575,1.816,1.853,0.006,0.112,0.194
311,0.038,0.335,0.697,1.027,1.576,1.789,1.829,0.006,0.113,0.196
312,0.037,0.337,0.702,1.03,1.558,1.725,1.797,0.006,0.115,0.198
313,0.038,0.341,0.707,1.036,1.553,1.69,1.763,0.007,0.118,0.2
314,0.038,0.343,0.709,1.039,1.566,1.69,1.78,0.006,0.116,0.199
315,0.037,0.345,0.708,1.039,1.567,1.689,1.795,0.005,0.114,0.198
316,0.036,0.345,0.709,1.038,1.566,1.602,1.761,0.004,0.112,0.199
317,0.036,0.346,0.707,1.038,1.551,1.586,1.725,0.004,0.113,0.199
318,0.037,0.348,0.708,1.04,1.534,1.509,1.713,0.005,0.115,0.2
319,0.037,0.348,0.707,1.043,1.542,1.481,1.734,0.005,0.115,0.2
320,0.038,0.348,0.707,1.042,1.536,1.533,1.731,0.005,0.116,0.201
321,0.039,0.345,0.708,1.036,1.543,1.589,1.736,0.006,0.116,0.202
322,0.039,0.345,0.708,1.036,1.553,1.678,1.729,0.006,0.117,0.203
323,0.039,0.344,0.71,1.036,1.555,1.706,1.754,0.006,0.117,0.202
324,0.037,0.345,0.71,1.041,1.58,1.688,1.773,0.005,0.116,0.201
325,0.037,0.346,0.71,1.04,1.581,1.653,1.776,0.006,0.116,0.201
326,0.039,0.347,0.709,1.037,1.578,1.559,1.791,0.006,0.117,0.201
327,0.038,0.346,0.706,1.037,1.56,1.603,1.746,0.006,0.116,0.202
328,0.038,0.343,0.703,1.034,1.552,1.621,1.698,0.006,0.114,0.2
329,0.037,0.34,0.699,1.027,1.551,1.768,1.635,0.005,0.113,0.199
330,0.037,0.338,0.698,1.019,1.533,1.729,1.613,0.005,0.113,0.198
331,0.037,0.338,0.697,1.017,1.53,1.71,1.667,0.005,0.114,0.198
332,0.037,0.339,0.695,1.019,1.542,1.726,1.722,0.006,0.115,0.199
333,0.037,0.339,0.693,1.019,1.554,1.668,1.766,0.005,0.114,0.198
334,0.036,0.338,0.688,1.011,1.551,1.71,1.754,0.005,0.112,0.195
335,0.036,0.334,0.683,1.003,1.522,1.6,1.736,0.005,0.11,0.193
336,0.036,0.329,0.675,0.994,1.513,1.557,1.741,0.006,0.11,0.191
337,0.035,0.324,0.666,0.979,1.499,1.631,1.764,0.005,0.108,0.189
338,0.035,0.318,0.656,0.964,1.496,1.686,1.746,0.004,0.107,0.187
339,0.034,0.313,0.648,0.948,1.47,1.703,1.719,0.005,0.107,0.185
340,0.036,0.307,0.638,0.935,1.436,1.642,1.69,0.006,0.106,0.183
341,0.036,0.304,0.627,0.919,1.418,1.505,1.692,0.007,0.105,0.182
342,0.035,0.298,0.615,0.9,1.389,1.47,1.687,0.006,0.102,0.179
343,0.034,0.289,0.601,0.881,1.38,1.535,1.667,0.006,0.1,0.174
344,0.031,0.281,0.587,0.865,1.351,1.529,1.644,0.005,0.096,0.167
345,0.03,0.272,0.572,0.847,1.321,1.482,1.628,0.003,0.093,0.161
346,0.028,0.267,0.556,0.824,1.303,1.354,1.603,0.004,0.09,0.158
347,0.028,0.259,0.54,0.799,1.271,1.334,1.584,0.004,0.088,0.155
348,0.028,0.251,0.524,0.775,1.235,1.303,1.559,0.005,0.086,0.152
349,0.029,0.244,0.51,0.752,1.202,1.288,1.529,0.006,0.085,0.148
350,0.029,0.236,0.494,0.73,1.173,1.278,1.499,0.006,0.083,0.143
351,0.028,0.228,0.476,0.705,1.138,1.252,1.458,0.005,0.079,0.137
352,0.026,0.218,0.459,0.679,1.095,1.21,1.419,0.004,0.075,0.132
353,0.024,0.209,0.441,0.655,1.052,1.156,1.384,0.003,0.073,0.127
354,0.024,0.201,0.426,0.632,1.027,1.119,1.35,0.004,0.072,0.124
355,0.024,0.193,0.41,0.608,0.999,1.067,1.312,0.005,0.069,0.12
356,0.023,0.183,0.393,0.583,0.961,1.034,1.266,0.004,0.065,0.114
357,0.02,0.174,0.374,0.556,0.921,0.99,1.221,0.002,0.061,0.107
358,0.02,0.165,0.359,0.533,0.881,0.966,1.179,0.003,0.06,0.104
359,0.02,0.157,0.342,0.511,0.849,0.926,1.133,0.003,0.059,0.102
360,0.021,0.15,0.327,0.488,0.815,0.887,1.083,0.004,0.057,0.099
361,0.02,0.142,0.312,0.466,0.78,0.848,1.032,0.004,0.054,0.094
362,0.018,0.134,0.298,0.444,0.744,0.805,0.983,0.004,0.051,0.089
363,0.018,0.126,0.283,0.422,0.707,0.768,0.932,0.004,0.048,0.084
364,0.016,0.12,0.268,0.398,0.67,0.722,0.882,0.002,0.046,0.08
365,0.016,0.115,0.255,0.377,0.636,0.685,0.833,0.002,0.045,0.078
366,0.015,0.11,0.244,0.358,0.605,0.647,0.788,0.003,0.044,0.075
367,0.015,0.103,0.231,0.34,0.575,0.609,0.746,0.003,0.042,0.071
368,0.014,0.098,0.218,0.322,0.545,0.58,0.705,0.002,0.039,0.067
369,0.014,0.093,0.207,0.304,0.516,0.547,0.664,0.001,0.036,0.063
370,0.015,0.088,0.197,0.289,0.491,0.524,0.627,0.003,0.036,0.062
371,0.014,0.083,0.186,0.274,0.466,0.498,0.592,0.003,0.033,0.059
372,0.013,0.077,0.176,0.259,0.443,0.471,0.558,0.002,0.032,0.056
373,0.013,0.073,0.167,0.246,0.422,0.447,0.527,0.002,0.03,0.054
374,0.014,0.068,0.159,0.233,0.4,0.422,0.498,0.003,0.03,0.052
375,0.014,0.062,0.151,0.221,0.379,0.398,0.471,0.004,0.028,0.05
376,0.013,0.058,0.142,0.209,0.359,0.377,0.443,0.004,0.027,0.048
377,0.012,0.053,0.134,0.197,0.339,0.356,0.417,0.003,0.026,0.044
378,0.011,0.051,0.127,0.187,0.322,0.335,0.393,0.003,0.025,0.042
379,0.011,0.05,0.12,0.177,0.304,0.317,0.37,0.002,0.024,0.04
380,0.011,0.046,0.114,0.168,0.288,0.3,0.348,0.003,0.024,0.039
381,0.01,0.042,0.106,0.157,0.272,0.283,0.327,0.002,0.022,0.037
382,0.008,0.038,0.1,0.146,0.256,0.267,0.306,0.001,0.02,0.034
383,0.005,0.034,0.093,0.137,0.242,0.25,0.287,0.0,0.018,0.03
384,0.005,0.033,0.089,0.13,0.23,0.238,0.27,0.0,0.018,0.029
385,0.007,0.031,0.084,0.122,0.218,0.225,0.254,0.0,0.017,0.028
386,0.008,0.03,0.08,0.116,0.206,0.212,0.239,0.0,0.016,0.027
387,0.007,0.027,0.075,0.11,0.195,0.202,0.224,0.001,0.015,0.026
388,0.006,0.025,0.071,0.104,0.184,0.191,0.21,0.002,0.015,0.025
389,0.007,0.022,0.068,0.098,0.174,0.18,0.197,0.002,0.015,0.025
390,0.007,0.021,0.064,0.092,0.163,0.168,0.184,0.001,0.013,0.023
391,0.008,0.019,0.06,0.087,0.154,0.158,0.173,0.001,0.013,0.023
392,0.008,0.017,0.056,0.082,0.145,0.147,0.162,0.001,0.013,0.022
393,0.007,0.015,0.052,0.076,0.136,0.137,0.151,0.001,0.013,0.021
394,0.005,0.013,0.049,0.071,0.128,0.128,0.14,0.0,0.012,0.02
395,0.005,0.013,0.047,0.067,0.12,0.122,0.129,0.0,0.011,0.018
396,0.004,0.012,0.043,0.062,0.113,0.117,0.12,-0.001,0.01,0.016
397,0.004,0.011,0.04,0.057,0.106,0.111,0.112,-0.001,0.009,0.014
398,0.004,0.009,0.038,0.053,0.1,0.107,0.106,0.0,0.009,0.014
399,0.004,0.008,0.036,0.051,0.094,0.099,0.099,0.0,0.009,0.015
400,0.004,0.007,0.034,0.048,0.088,0.092,0.091,-0.001,0.009,0.013
401,0.004,0.005,0.031,0.043,0.08,0.086,0.082,-0.003,0.007,0.011
402,0.004,0.004,0.028,0.039,0.074,0.08,0.076,-0.003,0.006,0.01
403,0.005,0.003,0.027,0.037,0.069,0.076,0.072,-0.002,0.007,0.01
404,0.006,0.002,0.027,0.036,0.066,0.071,0.067,0.001,0.009,0.011
405,0.005,0.0,0.024,0.032,0.061,0.066,0.061,0.0,0.008,0.01
406,0.004,0.001,0.023,0.031,0.057,0.065,0.057,0.0,0.007,0.009
407,0.005,0.001,0.022,0.029,0.055,0.064,0.054,0.0,0.007,0.009
408,0.007,0.001,0.021,0.027,0.051,0.061,0.05,0.0,0.006,0.009
409,0.007,0.001,0.02,0.025,0.048,0.057,0.046,0.002,0.007,0.009
410,0.005,-0.001,0.017,0.021,0.041,0.051,0.041,0.0,0.006,0.007
411,0.004,-0.001,0.015,0.02,0.037,0.048,0.038,0.001,0.006,0.007
412,0.004,-0.001,0.015,0.019,0.035,0.047,0.035,0.0,0.007,0.008
413,0.003,-0.003,0.013,0.017,0.032,0.044,0.031,-0.001,0.005,0.006
414,0.003,-0.004,0.012,0.015,0.029,0.041,0.028,0.0,0.006,0.005
415,0.004,-0.004,0.01,0.012,0.025,0.036,0.025,0.0,0.006,0.004
416,0.004,-0.005,0.01,0.011,0.022,0.034,0.023,0.0,0.005,0.004
417,0.004,-0.004,0.01,0.011,0.021,0.034,0.02,0.0,0.004,0.004
418,0.004,-0.006,0.009,0.009,0.019,0.032,0.018,-0.001,0.004,0.003
419,0.003,-0.008,0.008,0.008,0.018,0.029,0.015,-0.001,0.005,0.003
420,0.003,-0.008,0.006,0.007,0.016,0.025,0.013,-0.002,0.004,0.003
421,0.002,-0.008,0.005,0.005,0.014,0.022,0.01,-0.002,0.003,0.002
422,0.001,-0.009,0.004,0.005,0.011,0.021,0.008,-0.002,0.001,0.0
423,0.0,-0.01,0.003,0.003,0.009,0.019,0.007,-0.003,0.0,0.0
424,0.001,-0.01,0.003,0.003,0.009,0.018,0.007,-0.001,0.002,0.001
425,0.002,-0.009,0.004,0.003,0.01,0.018,0.007,0.0,0.004,0.003
426,0.002,-0.009,0.004,0.003,0.009,0.017,0.006,0.0,0.004,0.002
427,0.001,-0.009,0.003,0.002,0.007,0.017,0.003,-0.002,0.002,0.001
428,0.001,-0.009,0.002,0.001,0.005,0.018,0.003,-0.001,0.001,0.0
429,0.004,-0.008,0.003,0.003,0.005,0.02,0.005,0.0,0.003,0.001
430,0.005,-0.007,0.004,0.003,0.005,0.02,0.005,0.002,0.004,0.004
431,0.004,-0.01,0.002,0.001,0.003,0.016,0.003,0.0,0.003,0.002
432,0.002,-0.013,0.001,-0.002,0.0,0.014,0.001,-0.003,0.001,0.0
433,0.0,-0.014,0.0,-0.003,-0.003,0.011,0.0,-0.004,0.0,-0.001
434,0.0,-0.014,0.002,-0.003,-0.003,0.012,0.0,-0.004,0.002,0.0
435,0.002,-0.01,0.002,-0.001,-0.001,0.015,0.001,-0.002,0.004,0.002
436,0.003,-0.01,0.0,-0.002,-0.001,0.015,-0.001,-0.002,0.004,0.0
437,0.004,-0.01,0.0,-0.001,-0.001,0.015,-0.001,-0.001,0.003,-0.001
438,0.004,-0.01,0.001,-0.001,0.0,0.013,0.001,0.001,0.003,0.0
439,0.003,-0.01,0.002,-0.001,0.001,0.012,0.001,0.001,0.003,0.002
440,0.002,-0.01,0.002,-0.002,0.0,0.011,0.0,0.0,0.003,0.002
441,0.0,-0.011,-0.001,-0.004,-0.002,0.01,-0.003,-0.004,0.0,-0.002
442,0.001,-0.012,-0.001,-0.004,-0.002,0.01,-0.004,-0.004,0.0,-0.003
443,0.002,-0.01,0.001,-0.003,-0.001,0.011,-0.003,-0.002,0.001,-0.001
444,0.003,-0.011,0.002,-0.002,-0.001,0.011,-0.002,0.0,0.002,0.0
445,0.005,-0.009,0.003,0.0,0.0,0.013,0.001,0.002,0.004,0.001
446,0.004,-0.01,0.003,-0.002,-0.001,0.013,-0.001,0.0,0.003,0.0
447,0.003,-0.01,0.002,-0.003,-0.002,0.01,-0.002,-0.001,0.003,0.0
448,0.002,-0.01,0.001,-0.002,-0.002,0.01,-0.002,-0.001,0.004,0.0
449,0.001,-0.011,-0.001,-0.002,-0.002,0.008,-0.002,-0.001,0.004,-0.001
450,0.002,-0.01,0.0,-0.002,-0.002,0.008,-0.001,-0.001,0.004,0.0
451,0.002,-0.011,0.0,-0.003,-0.002,0.008,-0.002,-0.001,0.002,-0.001
452,0.001,-0.011,0.001,-0.002,-0.003,0.008,-0.002,-0.001,0.002,0.0
453,0.002,-0.008,0.002,0.0,-0.002,0.01,-0.001,0.001,0.004,0.001
454,0.002,-0.008,0.002,-0.001,-0.001,0.009,0.0,0.002,0.005,0.002
455,0.001,-0.008,0.001,-0.002,-0.003,0.008,-0.001,0.001,0.003,0.001
456,0.002,-0.01,0.0,-0.003,-0.003,0.008,-0.002,0.0,0.002,0.0
457,0.0,-0.013,-0.004,-0.005,-0.006,0.007,-0.005,-0.003,0.0,-0.003
458,0.0,-0.013,-0.004,-0.005,-0.005,0.008,-0.005,-0.004,0.0,-0.003
459,0.0,-0.014,-0.005,-0.007,-0.007,0.009,-0.006,-0.005,-0.001,-0.005
460,-0.001,-0.015,-0.004,-0.007,-0.008,0.006,-0.007,-0.005,-0.002,-0.006
461,0.001,-0.013,-0.002,-0.006,-0.007,0.005,-0.007,-0.005,-0.002,-0.005
462,0.002,-0.012,-0.001,-0.005,-0.006,0.004,-0.006,-0.003,0.0,-0.003
463,0.004,-0.012,-0.001,-0.005,-0.005,0.006,-0.004,-0.002,0.001,-0.001
464,0.005,-0.011,0.001,-0.003,-0.004,0.009,-0.003,0.0,0.002,0.0
465,0.004,-0.012,0.0,-0.003,-0.005,0.009,-0.003,0.0,0.002,-0.001
466,0.002,-0.013,0.0,-0.003,-0.005,0.009,-0.003,-0.001,0.002,0.0
467,0.0,-0.012,-0.001,-0.003,-0.005,0.008,-0.003,-0.001,0.002,0.0
468,-0.002,-0.014,-0.002,-0.005,-0.006,0.006,-0.004,-0.003,-0.001,-0.002
469,-0.003,-0.014,-0.004,-0.007,-0.008,0.002,-0.007,-0.006,-0.003,-0.006
470,-0.002,-0.016,-0.006,-0.008,-0.009,0.001,-0.009,-0.008,-0.004,-0.008
471,0.0,-0.014,-0.004,-0.007,-0.008,0.002,-0.009,-0.007,-0.002,-0.007
472,0.002,-0.013,-0.003,-0.006,-0.006,0.005,-0.007,-0.005,-0.001,-0.005
473,0.001,-0.014,-0.002,-0.006,-0.006,0.006,-0.007,-0.004,0.0,-0.003
474,-0.002,-0.016,-0.004,-0.007,-0.007,0.005,-0.007,-0.005,-0.002,-0.004
475,-0.001,-0.016,-0.003,-0.008,-0.007,0.002,-0.007,-0.006,-0.002,-0.004
476,0.0,-0.016,-0.004,-0.008,-0.008,0.001,-0.007,-0.006,-0.002,-0.004
477,0.001,-0.015,-0.003,-0.007,-0.007,0.001,-0.005,-0.005,0.0,-0.003
478,0.003,-0.013,0.0,-0.003,-0.004,0.003,-0.002,-0.001,0.002,0.0
479,0.006,-0.011,0.002,0.0,-0.001,0.005,0.0,0.001,0.004,0.003
480,0.004,-0.013,0.001,-0.003,-0.002,0.003,-0.002,0.0,0.002,0.001
481,-0.001,-0.016,-0.005,-0.007,-0.006,0.0,-0.007,-0.005,-0.003,-0.004
482,-0.004,-0.019,-0.01,-0.012,-0.011,-0.002,-0.011,-0.01,-0.008,-0.01
483,-0.005,-0.018,-0.008,-0.012,-0.012,-0.002,-0.012,-0.01,-0.007,-0.01
484,-0.002,-0.013,-0.004,-0.008,-0.008,-0.001,-0.009,-0.006,-0.004,-0.007
485,0.0,-0.009,-0.001,-0.005,-0.003,-0.003,-0.005,-0.002,0.001,-0.003
486,0.002,-0.01,-0.001,-0.004,-0.003,-0.004,-0.003,-0.002,0.002,-0.001
487,0.0,-0.014,-0.004,-0.007,-0.006,-0.006,-0.007,-0.005,-0.002,-0.004
488,-0.001,-0.015,-0.006,-0.009,-0.008,-0.007,-0.008,-0.006,-0.004,-0.005
489,-0.001,-0.014,-0.004,-0.008,-0.007,-0.008,-0.008,-0.005,-0.003,-0.004
490,0.0,-0.014,-0.003,-0.007,-0.005,-0.004,-0.006,-0.004,-0.002,-0.003
491,-0.001,-0.016,-0.003,-0.007,-0.006,-0.003,-0.006,-0.004,-0.002,-0.002
492,-0.003,-0.016,-0.005,-0.008,-0.007,-0.007,-0.007,-0.005,-0.004,-0.005
493,-0.003,-0.016,-0.005,-0.008,-0.007,-0.011,-0.007,-0.005,-0.004,-0.005
494,-0.001,-0.015,-0.003,-0.006,-0.004,-0.011,-0.005,-0.003,-0.001,-0.003
495,0.002,-0.013,0.0,-0.004,-0.002,-0.007,-0.003,-0.001,0.002,0.0
496,0.003,-0.014,0.0,-0.005,-0.004,-0.006,-0.003,-0.001,0.001,-0.002
497,0.003,-0.016,-0.002,-0.007,-0.007,-0.007,-0.006,-0.004,-0.001,-0.004
498,0.002,-0.016,-0.004,-0.008,-0.009,-0.008,-0.007,-0.006,-0.003,-0.005
499,0.002,-0.015,-0.003,-0.007,-0.007,-0.007,-0.006,-0.005,-0.001,-0.004
500,0.001,-0.014,-0.004,-0.007,-0.007,-0.007,-0.007,-0.005,-0.001,-0.003
501,0.0,-0.015,-0.005,-0.008,-0.007,-0.009,-0.008,-0.006,-0.002,-0.005
502,0.0,-0.015,-0.004,-0.007,-0.007,-0.01,-0.007,-0.005,-0.003,-0.005
503,0.001,-0.013,-0.002,-0.005,-0.006,-0.008,-0.005,-0.003,-0.002,-0.003
504,0.002,-0.011,-0.001,-0.004,-0.004,-0.007,-0.003,-0.002,0.001,-0.001
505,0.004,-0.009,0.001,-0.002,-0.002,-0.007,-0.001,0.001,0.005,0.002
506,0.003,-0.009,0.002,-0.001,-0.001,-0.007,0.001,0.002,0.006,0.003
507,0.0,-0.012,-0.001,-0.003,-0.003,-0.007,-0.001,0.0,0.002,0.001
508,0.0,-0.013,-0.003,-0.005,-0.005,-0.008,-0.004,-0.003,-0.001,-0.001
509,0.001,-0.013,-0.003,-0.006,-0.006,-0.009,-0.006,-0.004,-0.001,-0.002
510,0.002,-0.012,-0.002,-0.006,-0.006,-0.007,-0.006,-0.002,0.0,-0.003
511,0.001,-0.013,-0.002,-0.007,-0.007,-0.008,-0.007,-0.003,-0.002,-0.004
512,0.0,-0.014,-0.003,-0.008,-0.008,-0.009,-0.007,-0.004,-0.003,-0.006
513,0.0,-0.012,-0.002,-0.006,-0.006,-0.01,-0.005,-0.004,-0.003,-0.004
514,0.0,-0.011,-0.002,-0.005,-0.004,-0.01,-0.004,-0.002,-0.001,-0.003
515,0.001,-0.01,-0.001,-0.004,-0.003,-0.011,-0.003,-0.002,0.001,-0.001
516,0.002,-0.011,0.0,-0.003,-0.003,-0.011,-0.003,-0.002,0.003,0.0
517,0.001,-0.013,-0.001,-0.005,-0.005,-0.012,-0.005,-0.004,0.002,-0.001
518,-0.001,-0.015,-0.004,-0.006,-0.007,-0.016,-0.007,-0.005,0.0,-0.003
519,0.001,-0.014,-0.003,-0.005,-0.006,-0.016,-0.007,-0.004,0.0,-0.003
520,0.003,-0.011,-0.001,-0.002,-0.002,-0.017,-0.003,-0.001,0.001,-0.001
521,0.004,-0.009,0.001,-0.001,-0.001,-0.016,-0.001,0.001,0.003,0.001
522,0.003,-0.009,0.001,-0.001,0.0,-0.015,0.0,0.002,0.003,0.002
523,0.001,-0.011,0.0,-0.002,-0.001,-0.015,-0.001,0.001,0.003,0.002
524,0.002,-0.011,0.001,-0.001,-0.001,-0.012,0.0,0.001,0.005,0.002
525,0.003,-0.01,0.001,-0.001,-0.002,-0.012,-0.001,0.0,0.004,0.001
526,0.003,-0.01,0.001,-0.002,-0.002,-0.014,-0.003,-0.001,0.003,0.0
527,0.001,-0.01,0.001,-0.003,-0.002,-0.016,-0.004,-0.001,0.002,-0.001
528,0.001,-0.01,0.0,-0.003,-0.001,-0.017,-0.003,-0.001,0.002,-0.001
529,0.001,-0.01,0.0,-0.003,-0.002,-0.02,-0.004,-0.001,0.002,-0.002
530,0.001,-0.011,-0.001,-0.003,-0.003,-0.024,-0.004,-0.002,0.0,-0.003
531,0.001,-0.011,-0.001,-0.003,-0.003,-0.026,-0.005,-0.002,0.0,-0.001
532,0.002,-0.009,0.001,0.0,-0.001,-0.022,-0.002,0.0,0.003,0.001
533,0.003,-0.009,0.001,-0.001,-0.001,-0.021,-0.001,0.001,0.004,0.001
534,0.003,-0.01,0.001,-0.002,-0.001,-0.022,-0.002,0.001,0.004,0.0
535,0.002,-0.01,0.0,-0.004,-0.002,-0.024,-0.003,0.0,0.003,-0.001
536,0.001,-0.009,0.0,-0.004,-0.003,-0.024,-0.003,-0.001,0.003,0.0
537,0.0,-0.008,0.0,-0.003,-0.003,-0.021,-0.003,-0.001,0.004,0.001
538,-0.002,-0.008,-0.001,-0.005,-0.004,-0.023,-0.005,-0.002,0.002,-0.001
539,0.0,-0.007,0.0,-0.004,-0.002,-0.022,-0.004,0.0,0.003,0.001
540,0.001,-0.006,0.001,-0.003,-0.001,-0.021,-0.002,0.002,0.004,0.003
541,0.001,-0.008,0.0,-0.003,-0.002,-0.021,-0.002,0.001,0.004,0.003
542,0.0,-0.01,-0.001,-0.004,-0.003,-0.025,-0.004,-0.001,0.001,0.0
543,0.0,-0.01,-0.001,-0.005,-0.003,-0.028,-0.005,-0.002,0.001,-0.001
544,0.0,-0.009,-0.002,-0.004,-0.002,-0.028,-0.005,-0.002,0.001,-0.001
545,-0.001,-0.008,-0.001,-0.002,-0.001,-0.027,-0.003,0.0,0.002,0.0
546,0.0,-0.006,0.0,-0.002,-0.001,-0.024,-0.003,0.0,0.003,0.001
547,0.001,-0.004,0.0,-0.001,-0.001,-0.023,-0.002,0.0,0.004,0.001
548,0.002,-0.002,0.001,-0.001,-0.001,-0.02,-0.002,0.001,0.005,0.001
549,0.002,-0.002,0.0,-0.002,-0.001,-0.021,-0.002,0.001,0.005,0.001
550,0.002,-0.001,0.0,-0.003,-0.001,-0.023,-0.002,0.001,0.004,0.001
551,0.002,-0.002,0.0,-0.003,-0.002,-0.027,-0.003,0.0,0.002,0.0
552,0.002,-0.003,0.001,-0.002,-0.001,-0.026,-0.002,0.001,0.002,0.0
553,0.002,-0.003,0.002,-0.001,0.0,-0.023,-0.001,0.001,0.003,0.001
554,0.004,0.0,0.004,0.001,0.004,-0.018,0.001,0.003,0.005,0.002
555,0.006,0.003,0.004,0.001,0.005,-0.016,0.002,0.004,0.007,0.002
556,0.008,0.004,0.005,0.002,0.005,-0.014,0.003,0.005,0.009,0.003
557,0.007,0.004,0.003,0.002,0.005,-0.016,0.002,0.006,0.008,0.004
558,0.006,0.002,0.002,0.001,0.004,-0.018,0.0,0.004,0.007,0.004
559,0.004,-0.001,0.0,-0.001,0.001,-0.019,-0.002,0.002,0.004,0.001
560,0.002,-0.001,0.0,-0.002,0.0,-0.02,-0.002,0.001,0.004,0.001
561,0.003,0.0,0.001,-0.003,0.001,-0.018,0.0,0.002,0.004,0.002
562,0.004,0.002,0.003,-0.001,0.003,-0.018,0.001,0.003,0.004,0.004
563,0.005,0.003,0.002,-0.001,0.004,-0.017,0.001,0.004,0.003,0.003
564,0.005,0.004,0.002,0.001,0.003,-0.016,0.002,0.005,0.003,0.004
565,0.004,0.003,0.003,0.002,0.004,-0.016,0.002,0.006,0.004,0.005
566,0.004,0.003,0.004,0.002,0.005,-0.014,0.002,0.006,0.006,0.005
567,0.005,0.005,0.005,0.002,0.006,-0.012,0.002,0.007,0.008,0.005
568,0.006,0.006,0.006,0.002,0.007,-0.012,0.003,0.006,0.009,0.006
569,0.006,0.006,0.005,0.003,0.007,-0.009,0.003,0.006,0.009,0.007
570,0.007,0.004,0.006,0.004,0.007,-0.007,0.004,0.006,0.008,0.007
571,0.007,0.003,0.005,0.004,0.006,-0.006,0.003,0.005,0.007,0.006
572,0.008,0.005,0.007,0.005,0.006,-0.007,0.003,0.006,0.009,0.006
573,0.008,0.005,0.007,0.005,0.006,-0.01,0.003,0.005,0.009,0.005
574,0.006,0.003,0.004,0.003,0.003,-0.014,0.001,0.003,0.007,0.003
575,0.004,0.001,0.002,0.001,0.002,-0.015,0.0,0.001,0.006,0.003
576,0.004,-0.001,0.0,-0.002,0.001,-0.016,-0.003,0.001,0.005,0.002
577,0.006,0.001,0.001,-0.001,0.004,-0.012,-0.001,0.002,0.006,0.004
578,0.006,0.003,0.001,-0.001,0.004,-0.01,0.0,0.003,0.006,0.003
579,0.008,0.005,0.004,0.002,0.005,-0.008,0.002,0.005,0.007,0.005
580,0.006,0.005,0.004,0.002,0.004,-0.009,0.002,0.005,0.006,0.005
581,0.004,0.004,0.003,0.0,0.004,-0.009,0.0,0.003,0.004,0.003
582,0.003,0.004,0.001,-0.002,0.002,-0.01,-0.003,0.0,0.002,0.001
583,0.002,0.005,0.0,-0.002,0.001,-0.009,-0.003,-0.002,0.0,0.0
584,0.004,0.005,0.003,0.0,0.004,-0.006,-0.001,0.001,0.003,0.002
585,0.004,0.004,0.003,0.001,0.005,-0.004,0.0,0.003,0.004,0.004
586,0.006,0.005,0.004,0.002,0.007,-0.003,0.001,0.004,0.005,0.005
587,0.006,0.005,0.003,0.0,0.005,-0.004,0.0,0.003,0.004,0.003
588,0.007,0.005,0.003,0.001,0.005,-0.006,0.001,0.003,0.003,0.004
589,0.008,0.007,0.006,0.004,0.007,-0.003,0.004,0.005,0.005,0.006
590,0.009,0.01,0.008,0.005,0.009,0.001,0.005,0.007,0.008,0.008
591,0.008,0.01,0.008,0.003,0.007,0.003,0.003,0.004,0.007,0.006
592,0.007,0.007,0.004,0.0,0.004,-0.001,-0.001,0.001,0.005,0.003
593,0.007,0.007,0.003,0.001,0.004,-0.001,-0.001,0.002,0.006,0.004
594,0.007,0.008,0.002,0.0,0.004,0.0,-0.001,0.001,0.005,0.004
595,0.008,0.008,0.003,0.0,0.004,0.0,-0.002,0.001,0.004,0.003
596,0.005,0.006,0.0,-0.003,0.001,-0.005,-0.005,-0.002,0.002,0.001
597,0.002,0.003,-0.002,-0.005,-0.001,-0.006,-0.006,-0.002,0.001,-0.001
598,0.0,0.002,-0.003,-0.004,-0.001,-0.005,-0.005,-0.001,0.003,-0.001
599,0.001,0.0,-0.002,-0.004,0.0,-0.007,-0.004,-0.001,0.003,0.001
600,0.004,0.001,0.0,-0.002,0.002,-0.005,-0.001,0.002,0.005,0.003
601,0.005,0.005,0.004,0.001,0.005,-0.001,0.004,0.007,0.008,0.007
602,0.01,0.01,0.008,0.006,0.01,0.006,0.008,0.012,0.013,0.011
603,0.012,0.01,0.009,0.005,0.01,0.011,0.006,0.009,0.013,0.009
604,0.011,0.008,0.006,0.004,0.007,0.011,0.004,0.005,0.01,0.005
605,0.008,0.008,0.003,0.002,0.004,0.009,0.001,0.003,0.007,0.001
606,0.004,0.003,0.0,0.0,0.001,0.002,-0.002,0.001,0.004,-0.001
607,0.004,0.004,0.0,-0.001,0.0,0.002,-0.003,0.001,0.003,0.0
608,0.007,0.005,0.003,0.001,0.002,0.004,-0.001,0.003,0.005,0.002
609,0.009,0.01,0.006,0.003,0.006,0.008,0.003,0.006,0.008,0.005
610,0.007,0.006,0.003,0.0,0.004,0.009,0.001,0.003,0.004,0.002
611,0.003,0.0,-0.002,-0.004,0.0,0.001,-0.004,-0.002,-0.001,-0.004
612,0.003,0.0,-0.003,-0.005,-0.002,-0.002,-0.005,-0.003,-0.002,-0.005
613,0.004,0.002,0.0,-0.003,0.0,-0.003,-0.003,0.0,0.001,-0.001
614,0.003,0.003,0.001,-0.003,0.002,0.001,-0.002,0.001,0.001,-0.001
615,0.001,0.001,0.0,-0.004,0.002,0.003,-0.003,-0.001,-0.001,-0.003
616,0.001,0.003,0.001,-0.002,0.003,0.01,-0.002,0.0,0.002,0.0
617,0.005,0.006,0.003,0.001,0.004,0.014,0.001,0.004,0.008,0.005
618,0.007,0.007,0.003,0.001,0.002,0.014,0.002,0.004,0.009,0.005
619,0.008,0.006,0.001,0.001,0.002,0.01,0.001,0.003,0.007,0.003
620,0.008,0.005,0.002,0.001,0.002,0.008,0.0,0.002,0.005,0.002
621,0.006,0.003,0.002,0.001,0.002,0.007,-0.001,0.003,0.005,0.001
622,0.007,0.004,0.005,0.002,0.002,0.008,0.001,0.005,0.008,0.004
623,0.008,0.005,0.006,0.002,0.003,0.012,0.003,0.007,0.01,0.007
624,0.008,0.007,0.007,0.003,0.005,0.015,0.004,0.007,0.01,0.007
625,0.009,0.01,0.009,0.006,0.009,0.018,0.005,0.009,0.011,0.009
626,0.006,0.008,0.007,0.006,0.007,0.017,0.004,0.006,0.008,0.005
627,0.003,0.004,0.004,0.004,0.005,0.018,0.001,0.004,0.006,0.002
628,0.0,0.0,0.001,0.001,0.002,0.013,-0.001,0.001,0.003,-0.001
629,0.001,0.003,0.002,0.001,0.003,0.01,0.0,0.003,0.006,0.002
630,0.003,0.004,0.002,0.001,0.003,0.012,-0.001,0.004,0.007,0.003
631,0.005,0.003,0.002,0.0,0.002,0.016,0.0,0.004,0.006,0.001
632,0.01,0.005,0.005,0.003,0.006,0.019,0.003,0.006,0.007,0.004
633,0.013,0.009,0.009,0.006,0.009,0.02,0.006,0.009,0.011,0.008
634,0.012,0.01,0.009,0.006,0.009,0.022,0.006,0.009,0.012,0.009
635,0.01,0.006,0.005,0.003,0.007,0.024,0.004,0.007,0.008,0.005
636,0.006,0.003,0.001,-0.001,0.003,0.021,0.0,0.003,0.004,0.001
637,0.004,0.001,-0.002,-0.004,-0.002,0.016,-0.003,-0.002,0.002,-0.001
638,0.005,0.001,-0.003,-0.004,-0.005,0.011,-0.004,-0.005,0.001,-0.001
639,0.008,0.0,0.0,-0.002,-0.004,0.011,-0.003,-0.004,0.002,0.0
640,0.012,0.004,0.005,0.003,0.002,0.018,0.001,0.003,0.008,0.004
641,0.015,0.006,0.008,0.005,0.007,0.021,0.005,0.007,0.014,0.007
642,0.013,0.005,0.006,0.003,0.006,0.017,0.004,0.006,0.013,0.007
643,0.009,0.0,0.001,0.0,0.001,0.011,0.0,0.002,0.007,0.003
644,0.004,-0.002,-0.002,-0.003,-0.003,0.009,-0.003,-0.001,0.001,-0.001
645,0.004,-0.001,-0.001,-0.002,-0.003,0.01,-0.002,-0.001,0.0,-0.002
646,0.003,-0.001,-0.001,-0.003,-0.004,0.008,-0.003,0.0,-0.001,-0.002
647,0.002,-0.002,-0.001,-0.002,-0.003,0.008,-0.004,0.0,0.0,-0.001
648,0.004,-0.002,0.001,-0.001,-0.001,0.012,-0.003,0.0,0.003,0.0
649,0.007,0.001,0.004,0.002,0.003,0.019,0.0,0.002,0.007,0.002
650,0.011,0.004,0.006,0.005,0.005,0.022,0.004,0.005,0.008,0.005
651,0.011,0.007,0.005,0.005,0.004,0.021,0.005,0.006,0.007,0.005
652,0.009,0.004,0.003,0.002,0.001,0.017,0.001,0.005,0.005,0.003
653,0.006,0.001,0.002,-0.001,-0.002,0.016,-0.002,0.001,0.004,0.001
654,0.005,-0.002,0.001,-0.003,-0.002,0.013,-0.005,-0.002,0.003,-0.002
655,0.004,-0.002,-0.001,-0.003,-0.002,0.014,-0.006,-0.001,0.004,-0.002
656,0.003,-0.001,-0.001,-0.003,-0.001,0.012,-0.004,0.0,0.004,-0.001
657,0.002,0.0,0.0,-0.003,-0.001,0.012,-0.003,-0.001,0.003,-0.002
658,0.003,0.0,0.002,0.0,0.001,0.013,0.0,0.001,0.004,0.0
659,0.006,-0.001,0.004,0.002,0.002,0.017,0.003,0.004,0.006,0.003
660,0.007,0.001,0.005,0.002,0.001,0.019,0.003,0.006,0.008,0.005
661,0.006,0.0,0.005,0.001,0.0,0.019,0.001,0.005,0.006,0.002
662,0.002,-0.002,0.002,-0.003,-0.002,0.014,-0.004,0.0,0.003,-0.002
663,0.002,-0.001,0.002,-0.001,0.0,0.012,-0.004,0.0,0.002,-0.002
664,0.002,-0.001,-0.001,-0.003,-0.002,0.01,-0.007,-0.004,-0.001,-0.004
665,0.003,-0.003,-0.005,-0.005,-0.004,0.008,-0.007,-0.006,-0.005,-0.007
666,0.002,-0.006,-0.004,-0.006,-0.006,0.012,-0.008,-0.006,-0.005,-0.007
667,0.003,-0.003,0.001,-0.003,-0.001,0.016,-0.005,-0.002,0.001,-0.003
668,0.004,-0.001,0.003,-0.001,0.001,0.018,-0.003,0.001,0.003,-0.001
669,0.003,-0.002,0.003,-0.001,0.001,0.019,-0.001,0.0,0.004,-0.001
670,0.002,-0.004,0.001,-0.002,-0.001,0.017,-0.002,-0.001,0.003,-0.002
671,0.001,-0.004,-0.003,-0.005,-0.002,0.012,-0.005,-0.003,0.001,-0.004
672,0.0,-0.004,-0.003,-0.004,-0.003,0.01,-0.006,-0.002,0.0,-0.003
673,0.0,-0.003,-0.002,-0.003,-0.003,0.009,-0.006,-0.001,0.0,-0.003
674,0.001,-0.005,-0.003,-0.003,-0.003,0.007,-0.005,-0.001,0.0,-0.004
675,0.003,-0.006,-0.004,-0.005,-0.004,0.006,-0.006,-0.002,-0.002,-0.004
676,0.003,-0.005,-0.003,-0.006,-0.005,0.008,-0.005,-0.004,-0.002,-0.004
677,0.003,-0.004,-0.002,-0.005,-0.004,0.009,-0.005,-0.003,-0.001,-0.004
678,0.002,-0.005,-0.002,-0.005,-0.004,0.007,-0.005,-0.003,-0.001,-0.003
679,-0.001,-0.007,-0.004,-0.008,-0.007,0.007,-0.009,-0.005,-0.004,-0.006
680,-0.004,-0.01,-0.007,-0.01,-0.008,0.006,-0.011,-0.008,-0.008,-0.01
681,-0.001,-0.006,-0.005,-0.007,-0.004,0.012,-0.008,-0.005,-0.006,-0.008
682,0.003,0.001,-0.001,-0.002,0.0,0.017,-0.003,0.001,0.0,-0.002
683,0.007,0.004,0.004,0.001,0.003,0.02,0.0,0.005,0.007,0.003
684,0.009,0.003,0.006,0.002,0.005,0.02,0.003,0.007,0.009,0.004
685,0.008,0.002,0.004,0.002,0.003,0.022,0.001,0.005,0.007,0.003
686,0.002,-0.001,0.0,-0.002,-0.002,0.019,-0.003,0.0,0.002,-0.002
687,-0.003,-0.003,-0.004,-0.003,-0.005,0.012,-0.005,-0.003,-0.001,-0.003
688,-0.004,-0.005,-0.004,-0.005,-0.006,0.006,-0.005,-0.004,-0.003,-0.004
689,-0.001,-0.004,-0.003,-0.005,-0.005,0.009,-0.005,-0.004,-0.002,-0.003
690,0.002,-0.002,-0.001,-0.004,-0.003,0.012,-0.005,-0.002,0.001,-0.001
691,0.002,-0.002,-0.001,-0.003,-0.002,0.013,-0.003,0.0,0.003,0.001
692,0.002,-0.003,-0.001,-0.003,-0.002,0.011,-0.001,0.001,0.002,0.001
693,0.004,-0.004,0.0,-0.004,-0.001,0.013,-0.001,-0.001,0.002,0.0
694,0.004,-0.002,0.001,-0.001,0.001,0.015,-0.002,-0.001,0.001,-0.001
695,0.004,0.001,0.003,0.001,0.003,0.017,0.0,0.0,0.004,0.0
696,0.003,0.0,0.001,-0.001,0.0,0.015,-0.001,0.001,0.002,-0.001
697,0.002,-0.001,-0.003,-0.006,-0.007,0.004,-0.005,-0.003,-0.003,-0.004
698,-0.003,-0.006,-0.006,-0.009,-0.011,0.0,-0.009,-0.007,-0.007,-0.008
699,-0.001,-0.004,-0.004,-0.007,-0.008,0.003,-0.006,-0.004,-0.005,-0.006
700,0.002,-0.003,0.001,-0.004,-0.002,0.009,-0.002,0.0,0.0,-0.003
701,0.001,-0.002,0.001,-0.003,-0.001,0.008,-0.001,0.001,0.002,-0.002
702,-0.001,-0.003,0.0,-0.006,-0.002,0.006,-0.004,-0.002,-0.001,-0.004
703,0.0,-0.005,-0.002,-0.007,-0.005,0.006,-0.006,-0.004,-0.002,-0.005
704,0.003,-0.002,-0.002,-0.004,-0.003,0.007,-0.006,-0.003,-0.001,-0.003
705,0.002,-0.001,-0.003,-0.004,-0.003,0.011,-0.006,-0.002,0.0,-0.002
706,0.004,-0.001,-0.002,-0.002,0.002,0.017,-0.004,0.0,0.001,-0.001
707,0.006,0.001,0.001,-0.001,0.004,0.016,-0.001,0.003,0.004,0.0
708,0.008,0.004,0.004,0.001,0.005,0.014,0.0,0.005,0.007,0.003
709,0.007,0.003,0.004,0.001,0.004,0.01,-0.002,0.004,0.006,0.002
710,0.008,0.005,0.004,0.002,0.002,0.013,-0.002,0.004,0.006,0.002
711,0.01,0.005,0.005,0.005,0.004,0.017,0.0,0.005,0.009,0.004
712,0.009,0.001,0.003,0.004,0.005,0.019,0.002,0.005,0.009,0.006
713,0.005,-0.001,0.0,0.0,0.003,0.011,-0.002,0.002,0.005,0.001
714,0.005,0.0,0.001,-0.002,0.0,0.006,-0.003,0.002,0.003,-0.002
715,0.008,0.003,0.004,0.0,0.0,0.007,0.0,0.003,0.003,0.0
716,0.009,0.003,0.004,0.001,0.002,0.007,0.002,0.005,0.005,0.002
717,0.005,0.001,0.002,-0.002,-0.001,0.005,-0.002,0.002,0.002,0.0
718,0.002,-0.002,-0.001,-0.006,-0.005,-0.002,-0.006,-0.002,0.001,-0.002
719,0.004,-0.006,-0.003,-0.006,-0.006,-0.004,-0.005,-0.002,0.001,-0.002
720,0.004,-0.004,-0.002,-0.002,-0.003,-0.001,-0.003,0.001,0.004,0.0
721,0.003,0.001,0.001,0.001,0.0,0.008,-0.001,0.003,0.005,0.001
722,0.001,0.001,0.002,0.0,0.001,0.011,-0.003,0.004,0.005,-0.001
723,0.003,0.0,0.002,-0.001,0.002,0.012,-0.002,0.004,0.004,-0.001
724,0.006,0.0,0.002,-0.001,0.001,0.008,0.0,0.004,0.005,0.0
725,0.004,0.0,0.003,-0.003,-0.002,0.007,0.0,0.002,0.004,0.001
726,0.002,-0.001,0.002,-0.003,-0.002,0.007,0.0,0.001,0.005,0.0
727,0.005,-0.002,-0.001,-0.003,-0.002,0.009,-0.003,0.0,0.003,-0.001
728,0.005,-0.003,-0.004,-0.004,-0.003,0.006,-0.005,-0.002,0.0,-0.001
729,0.003,-0.005,-0.003,-0.005,-0.005,0.005,-0.007,-0.002,-0.002,-0.002
730,-0.001,-0.006,-0.002,-0.004,-0.004,0.005,-0.006,-0.003,-0.003,-0.003
731,0.001,-0.009,-0.002,-0.003,-0.003,0.007,-0.006,-0.003,-0.004,-0.003
732,0.002,-0.008,-0.003,-0.004,-0.002,0.009,-0.005,-0.002,-0.003,-0.003
733,0.002,-0.004,-0.003,-0.003,-0.002,0.011,-0.004,0.001,0.001,-0.002
734,0.0,-0.001,-0.003,-0.003,-0.001,0.01,-0.004,0.004,0.003,-0.001
735,-0.001,-0.004,-0.004,-0.004,-0.003,0.002,-0.005,0.0,0.002,-0.001
736,0.001,-0.005,-0.003,-0.005,-0.005,0.002,-0.005,-0.001,0.002,-0.002
737,0.005,0.001,0.0,-0.003,-0.003,0.005,-0.004,0.0,0.004,0.0
738,0.007,0.003,0.001,0.0,0.001,0.009,-0.001,0.003,0.005,0.002
739,0.005,0.002,0.0,-0.003,0.0,0.003,-0.003,0.0,0.003,0.001
740,0.0,-0.003,-0.005,-0.008,-0.005,-0.003,-0.007,-0.007,-0.002,-0.005
741,0.002,-0.003,-0.006,-0.009,-0.006,-0.003,-0.011,-0.008,-0.004,-0.007
742,0.006,-0.002,-0.003,-0.005,-0.003,-0.003,-0.008,-0.003,-0.001,-0.003
743,0.007,0.001,-0.001,-0.003,-0.001,-0.005,-0.007,-0.001,-0.002,-0.003
744,0.003,0.0,-0.004,-0.007,-0.002,-0.003,-0.007,-0.005,-0.006,-0.006
745,0.002,-0.002,-0.009,-0.009,-0.005,0.003,-0.01,-0.007,-0.007,-0.007
746,0.002,-0.004,-0.009,-0.008,-0.005,0.001,-0.01,-0.006,-0.003,-0.005
747,0.001,-0.003,-0.006,-0.005,-0.004,-0.002,-0.006,-0.002,0.0,-0.004
748,0.002,-0.002,-0.004,-0.003,-0.002,-0.002,-0.003,0.001,0.0,-0.002
749,0.001,0.0,-0.002,-0.002,-0.001,-0.001,-0.002,0.0,-0.002,-0.002
750,0.0,0.0,0.0,0.0,0.0,0.0,0.0,0.0,0.0,0.0
751,0.001,0.001,0.003,0.003,0.001,0.003,0.002,0.003,0.002,0.001
752,0.002,0.0,0.001,0.0,0.0,0.004,-0.002,0.004,0.002,-0.002
753,0.001,0.0,-0.002,-0.006,-0.005,0.003,-0.007,-0.002,0.0,-0.006
754,0.003,0.002,-0.003,-0.007,-0.004,-0.001,-0.008,-0.004,-0.001,-0.006
755,0.002,0.002,-0.003,-0.006,-0.004,-0.006,-0.009,-0.004,-0.002,-0.005
756,0.003,0.0,-0.004,-0.004,-0.002,0.001,-0.007,-0.001,-0.002,-0.001
757,0.002,0.0,-0.004,-0.003,-0.003,0.006,-0.004,0.001,-0.001,-0.001
758,0.004,-0.001,-0.001,-0.001,0.001,0.005,-0.001,0.003,0.004,0.003
759,0.007,0.001,0.007,0.004,0.005,0.001,0.004,0.007,0.01,0.008
760,0.01,0.002,0.009,0.006,0.009,0.002,0.007,0.009,0.013,0.01
761,0.014,0.006,0.009,0.006,0.009,0.008,0.008,0.011,0.014,0.009
762,0.009,0.004,0.005,0.003,0.006,0.005,0.002,0.007,0.009,0.005
763,0.005,0.004,0.002,0.0,0.001,0.002,-0.002,0.003,0.005,0.0
764,0.004,0.005,-0.002,-0.003,-0.001,0.001,-0.004,0.002,0.003,-0.003
765,0.01,0.007,0.0,0.0,0.004,0.011,-0.001,0.004,0.006,0.0
766,0.009,0.005,-0.001,0.0,0.004,0.008,0.0,0.003,0.006,0.001
767,0.006,0.002,0.0,0.001,0.002,0.002,0.0,0.001,0.005,0.001
768,0.006,0.0,0.0,-0.001,0.0,0.001,-0.003,0.001,0.005,0.0
769,0.006,-0.002,0.001,0.001,0.0,0.005,-0.003,0.0,0.005,0.0
770,0.006,-0.002,-0.002,0.0,0.0,0.001,-0.003,0.0,0.004,-0.001
771,0.002,0.0,-0.004,-0.003,-0.001,-0.005,-0.004,-0.001,0.001,-0.003
772,0.004,-0.001,-0.001,-0.007,-0.001,-0.002,-0.003,0.001,0.001,-0.003
773,0.001,0.0,-0.001,-0.007,-0.005,0.005,-0.004,-0.002,-0.001,-0.004
774,0.0,-0.008,-0.003,-0.009,-0.008,0.005,-0.007,-0.006,-0.003,-0.007
775,0.0,-0.008,-0.002,-0.008,-0.008,0.005,-0.008,-0.006,-0.002,-0.005
776,0.003,-0.006,0.0,-0.004,-0.003,0.009,-0.005,0.0,0.003,0.0
777,0.004,0.0,0.001,0.0,0.0,0.011,-0.003,0.004,0.005,0.001
778,0.004,0.001,-0.001,-0.002,0.0,0.001,-0.001,0.004,0.006,0.0
779,0.005,0.002,0.0,-0.002,-0.001,0.004,0.0,0.004,0.007,0.001
780,0.007,0.005,0.003,0.001,0.002,0.01,0.002,0.007,0.005,0.006
781,0.004,0.003,0.004,0.001,0.002,0.008,0.001,0.006,0.003,0.005
782,-0.002,0.002,-0.001,-0.005,-0.002,-0.001,-0.004,0.0,-0.001,-0.002
783,-0.005,-0.003,-0.005,-0.009,-0.006,-0.004,-0.01,-0.007,-0.003,-0.009
784,-0.002,-0.004,-0.005,-0.008,-0.005,-0.007,-0.011,-0.01,-0.005,-0.007
785,-0.002,-0.005,-0.003,-0.007,-0.004,-0.004,-0.007,-0.008,-0.004,-0.005
786,-0.003,-0.004,-0.006,-0.01,-0.011,-0.005,-0.009,-0.009,-0.006,-0.009
787,0.0,-0.004,-0.006,-0.013,-0.008,0.002,-0.01,-0.007,-0.005,-0.008
788,0.003,-0.004,-0.002,-0.008,-0.003,0.008,-0.007,-0.003,0.001,0.0
789,0.006,-0.006,-0.001,-0.002,0.002,0.018,0.0,0.001,0.005,0.005
790,0.005,0.001,0.002,0.003,0.002,0.012,0.004,0.003,0.006,0.003
791,0.005,0.004,0.007,0.003,0.003,0.017,0.004,0.003,0.005,0.003
792,0.005,-0.001,0.002,0.0,0.001,0.013,-0.001,0.003,0.003,0.002
793,0.004,-0.001,-0.003,-0.001,0.003,0.009,-0.004,0.002,0.005,0.001
794,0.003,-0.001,-0.006,-0.005,-0.002,0.004,-0.007,-0.001,0.006,-0.002
795,-0.001,-0.001,-0.005,-0.009,-0.006,0.003,-0.01,-0.008,0.002,-0.007
796,-0.001,-0.005,-0.013,-0.014,-0.011,-0.001,-0.014,-0.013,-0.008,-0.013
797,0.0,-0.001,-0.007,-0.006,-0.007,-0.001,-0.01,-0.005,-0.005,-0.008
798,-0.001,0.0,-0.003,-0.003,-0.008,0.002,-0.01,-0.001,-0.001,-0.005
799,0.001,0.006,0.004,-0.002,-0.005,-0.004,-0.006,0.003,0.002,0.0
800,0.004,0.005,-0.001,-0.006,-0.002,-0.002,-0.006,-0.002,-0.003,-0.002
801,0.001,0.001,-0.002,-0.009,-0.001,0.0,-0.007,-0.004,-0.006,-0.005
802,-0.002,-0.001,-0.004,-0.008,0.0,0.001,-0.01,-0.005,-0.004,-0.008
803,-0.001,-0.004,-0.005,-0.003,-0.001,0.004,-0.008,-0.001,-0.001,-0.006
804,0.005,-0.002,-0.003,-0.002,0.0,0.011,-0.002,0.001,0.001,-0.004
805,0.008,0.001,-0.001,-0.002,0.001,0.01,0.002,0.003,0.005,-0.005
806,0.006,0.005,-0.002,-0.006,-0.001,0.007,-0.003,-0.003,0.002,-0.007
807,-0.001,-0.003,-0.003,-0.01,-0.008,0.012,-0.011,-0.005,-0.001,-0.007
808,-0.003,-0.007,0.0,-0.008,-0.008,0.018,-0.009,-0.003,0.0,-0.001
809,0.0,0.004,0.006,0.0,0.002,0.023,0.001,0.004,0.008,0.006
810,0.0,0.009,0.005,-0.002,0.003,0.012,0.002,0.004,0.009,0.009
811,0.001,0.008,0.001,-0.005,0.005,0.009,0.001,-0.002,0.006,0.002
812,0.006,0.006,-0.001,-0.002,0.001,0.01,0.0,-0.004,0.007,0.001
813,0.011,0.008,0.004,0.003,0.006,0.025,0.002,0.003,0.009,0.007
814,0.01,0.004,0.007,0.006,0.005,0.026,0.0,0.008,0.009,0.011
815,0.01,0.01,0.011,0.01,0.011,0.025,0.002,0.008,0.009,0.009
816,0.009,0.012,0.011,0.01,0.005,0.011,0.005,0.006,0.009,0.005
817,0.006,0.006,0.005,0.002,0.004,0.003,0.006,0.002,0.006,0.004
818,0.008,0.0,0.001,-0.006,0.001,0.005,0.002,0.002,0.006,0.001
819,0.011,0.002,0.001,-0.005,0.003,0.016,0.0,0.006,0.006,0.001
820,0.01,0.006,0.003,0.001,0.002,0.02,0.002,0.007,0.006,0.002
821,0.006,0.007,0.002,0.001,0.002,0.011,0.004,0.005,0.006,0.003
822,0.008,0.006,0.005,0.002,0.003,0.009,0.004,0.007,0.011,0.005
823,0.007,0.001,0.003,0.002,0.002,0.017,0.001,0.008,0.009,0.003
824,0.001,-0.006,-0.002,-0.002,-0.001,0.012,-0.002,0.003,0.004,-0.001
825,0.001,-0.005,-0.003,-0.003,-0.001,0.003,-0.005,0.003,0.002,-0.003
826,0.003,0.005,-0.001,0.002,0.002,-0.004,-0.003,0.005,0.006,0.0
827,0.009,0.012,0.006,0.006,0.009,0.001,0.002,0.009,0.01,0.007
828,0.009,0.01,0.008,0.007,0.009,0.01,0.005,0.01,0.012,0.009
829,0.009,0.004,0.007,0.006,0.007,0.012,0.007,0.01,0.012,0.008
830,0.006,0.0,0.003,0.003,0.003,0.005,0.003,0.008,0.009,0.003
831,0.001,0.0,-0.003,-0.003,-0.003,-0.016,-0.004,0.002,0.002,-0.003
832,0.001,0.005,-0.006,-0.004,-0.005,-0.021,-0.005,-0.001,-0.001,-0.004
833,0.002,0.003,-0.007,-0.005,-0.003,-0.01,-0.007,-0.004,0.0,-0.004
834,0.002,-0.002,-0.003,-0.003,0.002,0.019,-0.004,0.001,0.002,-0.001
835,0.004,0.0,0.001,0.001,0.005,0.026,-0.001,0.006,0.004,0.002
836,0.007,0.001,0.007,0.003,0.006,0.012,0.005,0.009,0.006,0.005
837,0.009,0.0,0.003,0.0,0.004,-0.006,0.002,0.004,0.007,0.005
838,0.004,0.0,0.0,-0.002,-0.002,-0.002,-0.003,-0.001,0.003,0.001
839,-0.007,-0.005,-0.008,-0.001,-0.009,0.002,-0.013,-0.008,-0.007,-0.012
840,-0.01,-0.007,-0.007,-0.003,-0.007,0.005,-0.014,-0.008,-0.012,-0.014
