Baseline 100%T,,dm_37_SBW1nm_repeat1,,dm_37_SBW1nm_repeat2,,
Wavelength (nm),Abs,Wavelength (nm),Abs,Wavelength (nm),Abs,
800,0.07199890912,800,-0.0003310588654,800,-5.647951184E-5,
799,0.07144654542,799,0.0002757990151,799,-5.772187433E-5,
798,0.07114861161,798,0.0003005624167,798,0.0006413062802,
797,0.07137706876,797,-0.0002812893654,797,-0.0001492846059,
796,0.07138197869,796,-0.0003521651961,796,-0.0003369046026,
795,0.07111744583,795,0.0001384343341,795,-0.0002047097514,
794,0.07034361362,794,0.0002196980058,794,0.0005906014703,
793,0.07063085586,793,0.0002963400912,793,0.0001294750255,
792,0.07005412877,792,0.0003071679675,792,0.0003140067565,
791,0.07045828551,791,-9.405942546E-5,791,-0.0001263051527,
790,0.07053002715,790,0.0003681509115,790,-0.0004134091723,
789,0.0701758191,789,5.151613368E-5,789,0.0001554471673,
788,0.07047214359,788,0.0001209301918,788,-0.000486332021,
787,0.06989239901,787,-0.0001163159613,787,-5.368417987E-5,
786,0.06994184852,786,0.0004147358704,786,0.0001253061637,
785,0.06978854537,785,1.480702667E-5,785,0.0001951463782,
784,0.06995306909,784,0.0002746334067,784,-0.0004128402215,
783,0.06963162869,783,0.0003545753716,783,-6.367901733E-6,
782,0.06985287368,782,0.0001188069582,782,-0.0002219930902,
781,0.06989337504,781,-0.0004047196708,781,-0.00016180893,
780,0.07000373304,780,6.534109707E-5,780,-0.0003729084274,
779,0.06953588873,779,0.0003945259959,779,-1.987996802E-5,
778,0.0694590956,778,-4.162264304E-5,778,0.0002846318239,
777,0.06967344135,777,-6.434774696E-5,777,0.0003947591758,
776,0.06947588921,776,0.0002883618581,776,0.0001606003498,
775,0.06939172745,775,0.0002568129566,775,0.0001018214462,
774,0.06916491687,774,0.0004297384294,774,0.0007868952234,
773,0.06983347982,773,-0.0002701654739,773,-0.0004192538036,
772,0.06947859377,772,-0.000141521421,772,6.816310633E-5,
771,0.06899064779,771,0.0005097349058,771,0.0004635802761,
770,0.06900767237,770,0.0006703942199,770,0.0004078436759,
769,0.06909504533,769,0.0003726589202,769,0.0004709138884,
768,0.06891664863,768,0.0004896760802,768,0.0005782372318,
767,0.06926254928,767,0.0003469328512,767,-0.0002939651022,
766,0.06856139004,766,0.0008538332186,766,0.000393515511,
765,0.06898767501,765,0.0003894736583,765,0.0001954312611,
764,0.0691710785,764,-0.0002939651022,764,-0.0006982559571,
763,0.06865834445,763,-0.0002777711488,763,-0.0002432082256,
762,0.06824655831,762,0.0005335267633,762,0.0002011805627,
761,0.06824594736,761,0.0004963622196,761,0.0001809288224,
760,0.0679128468,760,0.0002283742797,760,0.0003535391006,
759,0.06782808155,759,0.0002787000849,759,0.0001779248123,
758,0.06821320951,758,-0.0005307520623,758,-0.0004500272917,
757,0.06783376634,757,-0.000185666242,757,-0.0001844242506,
756,0.06744870543,756,0.0003375029191,756,1.164884179E-5,
755,0.06753424555,755,-5.989599958E-5,755,0.0002914702345,
754,0.06731876731,754,0.0001750244119,754,0.0007731509977,
753,0.0675676018,753,-0.0001722628367,753,2.101991413E-5,
752,0.06760513783,752,0.0002324664238,752,1.597193659E-5,
751,0.06742596626,751,-6.403716543E-5,751,-0.00038196065,
750,0.06727974862,750,0.0003693167819,750,-0.0002269606339,
749,0.06750953943,749,0.0002073184296,749,-0.0006589190452,
748,0.06761524081,748,-0.0002844453848,748,-0.0004723690217,
747,0.06741628796,747,1.478113973E-5,747,7.761306915E-5,
746,0.06768433005,746,0.0002639358572,746,-8.091200289E-5,
745,0.06818392128,745,-4.736873962E-5,745,-0.0001154878337,
744,0.06834179908,744,-0.0001385196083,744,-0.0003933920234,
743,0.06825485826,743,0.0004086468834,743,0.0001211632334,
742,0.06849125028,742,0.0002638322476,742,7.813087723E-5,
741,0.06828578562,741,0.0001842954225,741,0.0002510888153,
740,0.06804168969,740,-0.0001141421162,740,0.0001689646888,
739,0.06780374795,739,-0.0001604115969,739,-0.0002949998307,
738,0.06704942137,738,9.244863031E-5,738,0.0001693531376,
737,0.06646230817,737,8.087529568E-5,737,0.0004562208778,
736,0.06613075733,736,-1.723971218E-5,736,-0.0002205442142,
735,0.06555566192,735,-0.0001237690594,735,0.0002039775572,
734,0.06496933848,734,8.139311103E-5,734,-2.210605453E-5,
733,0.06439485401,733,0.0002166160266,733,5.369081555E-5,
732,0.06419980526,732,-0.0004975538468,732,-0.0002091082715,
731,0.06369578093,731,0.0004701623984,731,0.0004213949724,
730,0.06374380738,730,8.361248547E-6,730,6.626858521E-6,
729,0.0634778589,729,-1.708470563E-6,729,-0.0003515961871,
728,0.06277257204,728,0.0005314792506,728,0.0001998338703,
727,0.06311905384,727,0.0001446748793,727,-1.951758168E-5,
726,0.06250452995,726,0.0001490510913,726,9.402801516E-5,
725,0.06221917644,725,9.956884605E-5,725,0.0003100433387,
724,0.06198909134,724,0.0002283483773,724,0.0004770037485,
723,0.06178002059,723,0.0003756902006,723,0.0007274351083,
722,0.06200921535,722,0.0001129292723,722,9.177545144E-5,
721,0.06188263372,721,-0.0001956021006,721,-7.024883962E-5,
720,0.06175450608,720,2.246960139E-5,720,-0.0002220448368,
719,0.061446473,719,0.0002157354611,719,5.226691428E-5,
718,0.06115793809,718,0.0003798614489,718,0.0001205935841,
717,0.06163461879,717,-0.0002337908954,717,-0.0001900649513,
716,0.06102960557,716,0.0002579785069,716,0.0004400772741,
715,0.06118633971,715,-0.0003026568156,715,8.931577759E-5,
714,0.06091766432,714,0.0003523732885,714,-0.0002020188695,
713,0.06097062305,713,0.0001812395931,713,-0.0003510788665,
712,0.0602388829,712,0.0005203348119,712,0.000362243969,
711,0.06048663706,711,-1.019895171E-5,711,0.0001361815375,
710,0.06058647484,710,-0.0001572029141,710,-1.899988456E-5,
709,0.06018577516,709,0.0002449762251,709,0.0003127374221,
708,0.06035650894,708,1.26843097E-5,708,2.966633292E-5,
707,0.06019154191,707,-0.0002018636296,707,-6.729830056E-5,
706,0.06000824273,706,0.0003205088724,706,-3.220095095E-5,
705,0.05972199887,705,0.0003067016951,705,-0.0001677086839,
704,0.05948085338,704,0.0002767574042,704,0.0003940596071,
703,0.05966868624,703,3.005464896E-5,703,-0.0001477319747,
702,0.05948011205,702,-1.832687849E-5,702,0.0002942419087,
701,0.05949807167,701,-4.918055492E-5,701,-0.000236378095,
700,0.05936367065,700,0.0003482800093,700,-0.0004350804375,
699,0.05926812068,699,0.0004712766968,699,-0.0001892887085,
698,0.05911106989,698,0.0002331139258,698,-5.673833584E-5,
697,0.05901673064,697,-0.0002636462159,697,-0.0001074134852,
696,0.05889742076,696,-0.0001853557478,696,0.0003080487077,
695,0.05887302384,695,-1.822333979E-5,695,4.530068054E-6,
694,0.0588413626,694,-0.0001210776827,694,-9.474160834E-6,
693,0.05848645791,693,5.035112554E-5,693,8.494016947E-5,
692,0.05838032067,692,1.084635642E-5,692,0.0003856391122,
691,0.05842340738,691,0.000180074232,691,0.0001921681687,
690,0.05853518099,690,-2.32967468E-5,690,1.157118186E-5,
689,0.05813930184,689,0.0001113239341,689,0.0001109096484,
688,0.05837176368,688,-6.403716543E-5,688,-0.0001375880092,
687,0.05798981711,687,0.0001269374479,687,0.0002114621748,
686,0.05813903362,686,-3.706712596E-5,686,7.765859664E-6,
685,0.05792139471,685,0.0001871958957,685,9.819657862E-5,
684,0.05776072294,684,0.0001704148744,684,0.0002956925018,
683,0.05781977251,683,0.0001138873049,683,-3.54105614E-5,
682,0.05796419829,682,4.356827048E-5,682,-0.0003635973844,
681,0.0575289391,681,7.290100621E-5,681,3.58276593E-5,
680,0.05751765147,680,0.0001616879599,680,8.333492588E-5,
679,0.05743990466,679,0.0001269115601,679,0.0001422925852,
678,0.05754332989,678,-7.268171612E-5,678,-0.000213506748,
677,0.05736223608,677,0.0002536012034,677,0.0003422178561,
676,0.05713527277,676,-3.825777458E-5,676,0.0004799320886,
675,0.05723212659,675,0.0001188328533,675,0.0004276655091,
674,0.05720590428,674,5.061001866E-5,674,0.0001904589444,
673,0.05726411194,673,4.413781789E-5,673,5.161968875E-5,
672,0.05696981028,672,0.0001061972216,672,3.145258961E-5,
671,0.05694313347,671,-0.0001233032526,671,0.0003557412128,
670,0.0567240864,670,0.0002775344765,670,0.0001730562799,
669,0.05686047301,669,0.0002003777336,669,-7.801329775E-5,
668,0.05695416778,668,-0.0001865977392,668,-9.654393216E-5,
667,0.05661306903,667,9.609934932E-5,667,0.0001291642984,
666,0.05656217411,666,-6.533126725E-5,666,0.0002593253739,
665,0.05645594373,665,6.005586329E-6,665,0.0002978684206,
664,0.05643085763,664,0.0001731080847,664,3.15820289E-5,
663,0.05653943866,663,-4.15191098E-5,663,-0.0001231479691,
662,0.05625561997,662,-0.0001944636169,662,9.529670206E-5,
661,0.05631623417,661,-2.101889731E-5,661,-2.029412462E-5,
660,0.05634296685,660,-0.0001349484664,660,-0.0002909126051,
659,0.05608351529,659,0.0001743511093,659,1.449638421E-5,
658,0.05603836104,658,-0.000106740612,658,4.840703241E-6,
657,0.05599336326,657,0.0001310027583,657,0.0001072329178,
656,0.05596441776,656,0.0001707515185,656,-7.325111073E-5,
655,0.05600178614,655,7.559360529E-5,655,-0.000160049327,
654,0.05583587289,654,-0.000155805581,654,-0.0001552362955,
653,0.05580814555,653,-0.0001817332377,653,2.120112549E-5,
652,0.05580334738,652,-2.940546437E-5,652,-0.0001969475561,
651,0.05576169863,651,-0.0001845794905,651,-0.0002116956166,
650,0.05556622148,650,2.728466825E-5,650,6.767119339E-5,
649,0.05540397763,649,0.0002153469832,649,0.0002230130922,
648,0.05538671464,648,8.54579921E-5,648,9.097281873E-5,
647,0.05538833141,647,0.0002517363173,647,-4.001786147E-5,
646,0.05553677306,646,3.44297041E-5,646,-0.000168536717,
645,0.05522212386,645,0.0002518140245,645,0.0001247364999,
644,0.05535227805,644,0.0001610146865,644,3.031352753E-5,
643,0.05541773885,643,-7.739214925E-5,643,-0.0002921542909,
642,0.05529412255,642,3.574999209E-5,642,-8.39659624E-5,
641,0.05532349274,641,0.0001049026105,641,-0.0002755981113,
640,0.0554138273,640,9.102460172E-5,640,-0.0001703480375,
639,0.05531023443,639,0.000220915259,639,5.387204146E-5,
638,0.05527101457,638,0.0002754881862,638,-9.577702258E-6,
637,0.05539674312,637,0.0002295915619,637,5.20080248E-5,
636,0.05530182272,636,0.000303644978,636,7.18395022E-5,
635,0.05541815236,635,0.00017950451,635,0.0001745841728,
634,0.05558652058,634,0.0001797893783,634,0.0001033749722,
633,0.05564280599,633,0.0001965966512,633,0.0001515628974,
632,0.05569948256,632,1.224423522E-5,632,9.138708265E-5,
631,0.05577997491,631,8.701145271E-5,631,0.0002003777336,
630,0.05577776954,630,-2.510866398E-5,630,0.0004171455512,
629,0.05591715872,629,-4.094967153E-5,629,0.0002272088022,
628,0.0558963418,628,1.812018127E-7,628,0.0002740635537,
627,0.05577367544,627,9.111956388E-6,627,0.000300018437,
626,0.05591648072,626,0.0002592217643,626,0.0003124783689,
625,0.05613161623,625,0.0001365699572,625,-7.837564044E-5,
624,0.05624212325,624,-4.265797907E-5,624,-0.0001663113799,
623,0.05599088967,623,0.0003970132966,623,0.0002004813141,
622,0.05637149513,622,4.323171743E-5,622,0.0001644070144,
621,0.05634411424,621,-0.000137691517,621,0.000127662468,
620,0.0565430373,620,3.981444388E-5,620,-0.0001572029141,
619,0.05671255291,619,0.0001300705771,619,-4.172617628E-5,
618,0.05681854859,618,5.842855899E-5,618,-0.0002407245483,
617,0.05693941191,617,-0.0001149184973,617,-0.0001102084716,
616,0.05705904216,616,-0.0001008400213,616,-0.0001003741854,
615,0.05706353113,615,2.666336513E-5,615,0.0001182890992,
614,0.05710855126,614,-2.39697456E-5,614,0.0001528058638,
613,0.05720351264,613,0.0001090194928,613,0.0001580108074,
612,0.05723847449,612,0.0001337992871,612,0.0002747111139,
611,0.05741473287,611,2.109757588E-5,611,0.0001316759881,
610,0.05759295449,610,-3.028552783E-5,610,0.0001202828644,
609,0.05758683383,609,7.655155787E-5,609,0.0002131714864,
608,0.05771341547,608,0.0001067409612,608,0.0001673073566,
607,0.05778730288,607,0.0001182632041,607,0.0001415675506,
606,0.05792861059,606,-7.558045036E-5,606,-1.159675867E-5,
605,0.05799301341,605,0.0001130328455,605,9.159421461E-5,
604,0.05810062215,604,5.796255209E-5,604,0.0001552400063,
603,0.05807310343,603,5.788488124E-5,603,0.0002187397331,
602,0.05808819458,602,8.043515118E-5,602,0.0001283616002,
601,0.05834727734,601,-1.061311741E-5,601,-0.0001572546753,
600,0.0581484437,600,0.0002379054204,600,0.0002448726154,
599,0.05809361115,599,0.0001824567444,599,0.000322892156,
598,0.05835245922,598,-7.133586769E-5,598,-0.0002185261255,
597,0.05830574036,597,6.220843352E-5,597,-1.734325269E-5,
596,0.05842003226,596,0.0003047329665,596,-6.527950609E-5,
595,0.05825177208,595,0.0001863153884,595,0.0002626925707,
594,0.05844170973,594,0.000188646125,594,0.0002042624255,
593,0.05853550881,593,0.0002176778798,593,0.0001001643614,
592,0.0586983934,592,7.877814642E-5,592,0.0001124632035,
591,0.05873235315,591,8.024724593E-6,591,0.0002493275388,
590,0.05887613446,590,8.224751218E-5,590,0.0001492582523,
589,0.05896753818,589,0.0001329965744,589,0.0002467374725,
588,0.05906676129,588,0.0001166578368,588,0.0004560654052,
587,0.05935993046,587,0.0001781578903,587,0.0001847097737,
586,0.05971944332,586,9.206026152E-5,586,9.312180919E-5,
585,0.05967153609,585,0.0002104780287,585,0.0003873232054,
584,0.06011581793,584,-1.501383622E-6,584,6.50045331E-5,
583,0.06019183993,583,7.655155787E-5,583,-2.433274176E-6,
582,0.06054728106,582,4.025454473E-5,582,-0.0002625596535,
581,0.06067740545,581,0.0001439239422,581,-0.0002228727681,
580,0.06097839773,580,-4.819699825E-5,580,-5.20794456E-5,
579,0.06110388413,579,9.211204451E-5,579,-6.305363786E-5,
578,0.06136954203,578,5.721175694E-5,578,8.509551117E-5,
577,0.06179431453,577,7.506937436E-7,577,-9.271364252E-5,
576,0.06191397831,576,-9.452526865E-5,576,-0.0001698305132,
575,0.06174746156,575,0.0001681360154,575,0.0005484038265,
574,0.06221302226,574,0.0001731080847,574,-1.522068305E-5,
573,0.06251576543,573,-0.0001028586557,573,-8.101552521E-5,
572,0.06239486486,572,8.03315852E-5,572,0.0002869630989,
571,0.06282533705,571,0.0002300836495,571,5.092068386E-5,
570,0.06310932338,570,5.488171882E-5,570,-0.0001560643432,
569,0.06329076737,569,0.0001058865164,569,-0.0002985179017,
568,0.06332167238,568,6.51080918E-5,568,-4.716167314E-5,
567,0.06345838308,567,0.0001619987161,567,-6.730299447E-6,
566,0.063405931,566,0.0002670181857,566,0.0002244116622,
565,0.0634591952,565,9.423514712E-5,565,0.0003621144278,
564,0.06372845173,564,5.12313527E-5,564,-0.0002227175282,
563,0.06395289302,563,4.548402649E-5,563,2.767298247E-5,
562,0.06381119788,562,-5.673833584E-5,562,0.0002769387211,
561,0.06383662671,561,0.00043194092,561,0.0004529817379,
560,0.06424989551,560,6.572944403E-5,560,0.0001056793772,
559,0.06447559595,559,1.638612775E-5,559,-0.0001817849843,
558,0.06464576721,558,-4.038192401E-6,558,3.272109825E-5,
557,0.0644588992,557,0.0004475918831,557,0.0001980987145,
556,0.06492482126,556,-0.0001976202911,556,7.287511835E-5,
555,0.06492547691,555,8.594991959E-5,555,-7.196239494E-6,
554,0.06489505619,554,0.0002165901242,554,8.024724593E-6,
553,0.06500466168,553,0.0001236748794,553,-4.747227285E-5,
552,0.06538269669,552,-1.387465727E-5,552,-0.0003251613234,
551,0.06538817286,551,-9.540520114E-5,551,-0.0001784212072,
550,0.06524044275,550,-9.525932001E-6,550,-0.0002479685354,
549,0.06539286673,549,1.294300318E-6,549,9.318958405E-7,
548,0.06558947265,548,1.162295575E-5,548,-0.0002009321761,
547,0.06551505625,547,0.0003354822693,547,2.327210859E-5,
546,0.06568507105,546,4.248095138E-5,546,-8.091200289E-5,
545,0.06586036086,545,-8.111904754E-5,545,-5.290769695E-5,
544,0.06578246504,544,-0.0001518205536,544,9.581453924E-5,
543,0.06607098132,543,-0.0001656903623,543,-0.0001877362374,
542,0.06595936418,542,0.0002811349405,542,-8.262015035E-5,
541,0.06612415612,541,5.630563101E-5,541,0.0002360924263,
540,0.06623108685,540,0.0002666814544,540,6.611779827E-5,
539,0.06609675288,539,0.0002033560013,539,5.633151886E-5,
538,0.06629902124,538,0.0002698932949,538,9.581453924E-5,
537,0.06653903425,537,-0.000166570142,537,-0.0003458023712,
536,0.066632092,536,-6.4503045E-5,536,-0.0002171289816,
535,0.06659865379,535,6.125051732E-5,535,-0.0002505039156,
534,0.06641030312,534,0.0002287627722,534,-0.0001476284669,
533,0.06681455672,533,-7.62533673E-5,533,-0.0002119543497,
532,0.06672553718,532,-3.463404573E-5,532,6.135017884E-6,
531,0.06708715111,531,-0.0002032090706,531,-7.977322821E-5,
530,0.06699187309,530,0.000182068281,530,-0.0001233549992,
529,0.06728700548,529,-0.0002138689742,529,-0.000234877516,
528,0.06719585508,528,-0.000201346149,528,-7.045589155E-5,
527,0.06720338017,527,0.000189241764,527,0.0001946284319,
526,0.067384094,526,-3.727419607E-5,526,-0.0001563231053,
525,0.06738802791,525,-0.0001223716099,525,-0.0001926006662,
524,0.06752305478,524,0.0001241150603,524,-8.251662803E-5,
523,0.06740350276,523,0.0004916196922,523,2.536899046E-5,
522,0.06777766347,522,1.216642204E-6,522,-0.0001858214964,
521,0.06779336929,521,1.972555583E-5,521,-9.628512635E-5,
520,0.06767719239,520,0.0001384602219,520,0.0001989533484,
519,0.06801428646,519,8.462947881E-5,519,-0.0003124865179,
518,0.06824698299,518,-0.0001562195976,518,-0.0004817294539,
517,0.06841024756,517,-0.0001614984067,517,-0.0002272193524,
516,0.06829429418,516,0.0002296692546,516,-0.0001827164961,
515,0.0685101971,515,-0.0002028985909,515,-8.205077029E-5,
514,0.06851428747,514,2.283202411E-5,514,-0.0003155388404,
513,0.06819330901,513,0.0004652387579,513,0.0002314045414,
512,0.06862014532,512,9.682431119E-5,512,-7.765721421E-6,
511,0.06893543154,511,-6.087953079E-5,511,-0.000284911046,
510,0.06888409704,510,0.000113395341,510,-0.0002759085328,
509,0.06896650046,509,0.0001437685714,509,-0.0001122270551,
508,0.06917936355,508,-0.000160463358,508,-0.0002592999663,
507,0.0690639019,507,9.312180919E-5,507,1.672265716E-5,
506,0.06919790804,506,7.626676233E-5,506,7.76579725E-7,
505,0.06949815899,505,3.735505743E-5,505,-0.0004714898532,
504,0.06939700991,504,0.0002006885043,504,6.736051E-5,
503,0.06957006454,503,0.0002127571061,503,-0.0001463346125,
502,0.06988412887,502,-0.000285894057,502,-0.0004571643658,
501,0.06986887008,501,-2.966430657E-5,501,-0.0002544880263,
500,0.069898054,500,0.0001736260019,500,-7.076647307E-5,
499,0.06990614533,499,0.0001758530998,499,-9.54569623E-5,
498,0.0700865835,498,0.0001078543355,498,-5.585832696E-5,
497,0.07017855346,497,0.0001226391469,497,-8.650228847E-5,
496,0.07018905133,496,0.0003427359916,496,0.0001076213011,
495,0.07038723677,495,5.860978854E-5,495,0.0002565021277,
494,0.0705370307,494,-7.196239494E-6,494,8.084940055E-5,
493,0.07065470517,493,4.452614667E-5,493,1.59201627E-5,
492,0.07069372386,492,4.478295523E-6,492,0.0001389263198,
491,0.07066959888,491,-1.107905337E-5,491,-8.199900913E-5,
490,0.07088208199,490,0.0002082248684,490,-0.0001621711999,
489,0.07099284232,489,0.0001973994804,489,-0.0001502161758,
488,0.07127505541,488,-0.000165172838,488,-0.0003986679658,
487,0.07125608623,487,-2.67134983E-5,487,-0.0002508143662,
486,0.07131440938,486,4.349060328E-5,486,0.000126497267,
485,0.07141663879,485,-1.837864875E-5,485,-3.059613664E-5,
484,0.07143876702,484,3.21256739E-5,484,7.497223851E-5,
483,0.07156981528,483,0.0002768869163,483,-0.0001510959992,
482,0.07171475887,482,0.0002900973777,482,-8.013556362E-5,
481,0.07186843455,481,9.366553422E-5,481,-1.553155357E-6,
480,0.07216618955,480,-0.0001124340924,480,-0.0003835641546,
479,0.07221946865,479,-8.174019604E-5,479,-0.000243725648,
478,0.07213565707,478,0.0001139132,478,4.543225077E-5,
477,0.0722868219,477,8.884973067E-5,477,-3.484111585E-5,
476,0.07238249481,476,8.688199887E-5,476,-0.0002219413436,
475,0.07245338708,475,0.0001980469242,475,-0.000227271099,
474,0.07253108174,474,0.0002048580936,474,0.000159201998,
473,0.07277459651,473,-7.78062531E-5,473,6.021493755E-5,
472,0.07256755233,472,0.0003276846255,472,0.0005733383005,
471,0.07286141068,471,1.001798501E-5,471,0.0004679078702,
470,0.0731259957,470,-0.0001005812228,470,0.0002573827805,
469,0.07289018482,469,0.0003975574218,469,0.000635266013,
468,0.07310884446,468,8.126365719E-5,468,0.0003461038286,
467,0.07333021611,467,-7.061118231E-5,467,0.0003154574079,
466,0.0735796988,466,-2.153659079E-5,466,-0.000113728056,
465,0.0735437274,465,0.0001453222503,465,0.000237076616,
464,0.07349696755,464,0.0003703012771,464,0.0002612938988,
463,0.07376296073,463,0.0002036149817,463,-0.0001268744818,
462,0.07369881868,462,0.0002298764593,462,0.0002405731502,
461,0.07426228374,461,-0.0001909446873,461,-9.908018546E-5,
460,0.07431425899,460,-0.0002042957785,460,-6.874769315E-5,
459,0.07436423749,459,-2.49015884E-5,459,2.943334403E-5,
458,0.07460727543,458,7.212429773E-5,458,-0.0001521828235,
457,0.07477027178,457,-1.133790647E-5,457,-0.0001606703736,
456,0.0746454224,456,0.0002311455464,456,0.0002344607201,
455,0.07476738095,455,0.0003541608748,455,-3.463404573E-5,
454,0.0750393793,454,-0.0001013058645,454,-0.0002206477075,
453,0.07509671152,453,7.287511835E-5,453,-8.287896344E-5,
452,0.07542581856,452,-0.0003274375631,452,-0.0001979307708,
451,0.07529957592,451,-7.863445353E-5,451,0.0001277401461,
450,0.07532565296,450,0.0003010027867,450,0.0002123427257,
449,0.0754326582,449,0.0001866261591,449,0.0003917277791,
448,0.07565164566,448,5.625385165E-5,448,0.0002340204228,
447,0.07548408955,447,0.0002216922294,447,0.0004799838935,
446,0.07594602555,446,-7.801329775E-5,446,-9.173018043E-5,
445,0.07598481327,445,-5.64277434E-5,445,0.0003890591033,
444,0.0761359632,444,9.137843335E-6,444,5.071357373E-5,
443,0.07600211352,443,0.0002497160458,443,0.0002980238351,
442,0.07629370689,442,2.052805758E-5,442,0.0003011841036,
441,0.07638468593,441,-3.256332639E-5,441,0.000120981982,
440,0.07627291232,440,3.525811917E-5,440,0.0005259847385,
439,0.07652069628,439,0.0002532385988,439,0.0002852534817,
438,0.07668923587,438,5.599495853E-5,438,0.0001992641191,
437,0.07715563476,437,-5.715245788E-5,437,-9.99601034E-5,
436,0.07709331065,436,0.0001233641524,436,-0.0001174028803,
435,0.07722882926,435,0.0002010510798,435,9.946528007E-5,
434,0.07747149467,434,-5.880893877E-5,434,-0.000122061072,
433,0.07761412114,433,-6.543479685E-5,433,-0.0001439538901,
432,0.07760749757,432,0.0001182114211,432,-0.0001172476113,
431,0.07761316746,431,0.0002493534412,431,5.855800919E-5,
430,0.07783591747,430,0.000212265033,430,-8.013556362E-5,
429,0.07796066999,429,0.0001931781735,429,-1.925873403E-5,
428,0.07793963701,428,0.0002606981725,428,0.0003007955384,
427,0.07805174589,427,0.0001186257068,427,0.0003979719768,
426,0.07852132618,426,0.0001591760956,426,-4.767933569E-5,
425,0.07847077399,425,0.0003120898036,425,0.0001341877069,
424,0.0787114352,424,0.0002905895235,424,2.966633292E-5,
423,0.07902612537,423,0.000137061943,423,-3.116558582E-5,
422,0.07897420973,422,0.0002249814424,422,1.835353942E-5,
421,0.07907975465,421,7.422141061E-5,421,0.0002963400912,
420,0.07933066785,420,0.0002363773237,420,0.0005540541024,
419,0.07938187569,419,8.38527485E-5,419,0.0004252039071,
418,0.0800512135,418,-0.0002617835416,418,-0.0001165229987,
417,0.08002886176,417,3.147847747E-5,417,0.0001875066519,
416,0.0803328976,416,0.0003180219792,416,-9.338653035E-5,
415,0.08056421578,415,4.460381388E-5,415,6.912103709E-5,
414,0.08038459718,414,0.0003271924215,414,0.0007137187058,
413,0.08070135117,413,-5.487478484E-5,413,0.0003423992021,
412,0.08112081885,412,-7.765096234E-5,412,-5.21829752E-5,
411,0.08130782098,411,0.0003289540182,411,0.0002086392342,
410,0.08158319443,410,-0.0001574616763,410,0.0001114533952,
409,0.08139479905,409,0.0004658866092,409,0.0008080829284,
408,0.08216559887,408,-0.0004870043194,408,0.0001187551752,
407,0.08230102062,407,0.0002661375038,407,0.0003184882808,
406,0.08233822137,406,4.092764357E-5,406,0.0003414665698,
405,0.08220366389,405,0.0004633211356,405,0.0009567111847,
404,0.08277029544,404,0.0004174305941,404,0.0005545724998,
403,0.0831239596,403,0.0003791101044,403,0.0004253852821,
402,0.08352522552,402,8.224751218E-5,402,-0.0001888229745,
401,0.08368294686,401,0.0001852795103,401,0.0007495274767,
400,0.08405993879,400,-0.0001093285682,400,0.0002363514213,
399,0.08414294571,399,0.0001218105608,399,0.0003371661587,
398,0.08437878639,398,-0.0002419146476,398,0.0005747120595,
397,0.08449461311,397,0.000151873639,397,0.0005360408104,
396,0.08458071947,396,0.000472494663,396,0.001145150512,
395,0.08515374362,395,-2.226187462E-6,395,0.0003780219413,
394,0.08534447104,394,0.0003575028968,394,0.0007510833093,
393,0.08581197262,393,6.652745014E-6,393,0.0007822791813,
392,0.08595882356,392,-3.742949775E-5,392,0.0006231596926,
391,0.08606456965,391,0.0002003518312,391,0.0008583462331,
390,0.08578100055,390,0.0007179969107,390,0.001211650553,
389,0.08646590263,389,0.0002432149922,389,0.0007333470276,
388,0.08695678413,388,-0.0001528556313,388,0.0002785964753,
387,0.08716454357,387,-0.0002442948171,387,0.000740270305,
386,0.08734118938,386,2.006208888E-5,386,0.0007151965983,
385,0.08731871843,385,0.000260542758,385,0.0008747907123,
384,0.08742355555,384,7.637032104E-5,384,0.001188807888,
383,0.08787466586,383,0.0003072715772,383,0.001169470372,
382,0.08841702342,382,-3.846484469E-5,382,0.000850150187,
381,0.08813946694,381,0.0005636442802,381,0.001358703244,
380,0.08841686696,380,0.0004289351637,380,0.001100018271,
379,0.08905448765,379,-3.794717122E-5,379,0.001209885464,
378,0.08871469647,378,0.0005672471016,378,0.001877445611,
377,0.08909065276,377,0.0001152596233,377,0.001547784661,
376,0.08952727169,376,3.782104613E-5,376,0.001241269987,
375,0.08941057324,375,0.0007582921535,375,0.001588104991,
374,0.09010870755,374,0.0006729090819,374,0.001307421247,
373,0.09042284638,373,0.0006434839452,373,0.001181591884,
372,0.09045367688,372,0.000422846002,372,0.001932331128,
371,0.09060481191,371,0.0001391593687,371,0.002435437636,
370,0.09088988602,370,-8.335201528E-6,370,0.001996221254,
369,0.09115163982,369,0.0004085173423,369,0.002217009664,
368,0.09180919081,368,5.177224466E-6,368,0.001739755506,
367,0.09170242399,367,0.0003426582844,367,0.002252604347,
366,0.09238824993,366,-0.0001942566305,366,0.002064152155,
365,0.0917455852,365,0.0007545321132,365,0.003086218843,
364,0.09279371053,364,0.0002655935823,364,0.002486175857,
363,0.09307781607,363,-0.0001431775745,363,0.002614259021,
362,0.09320305288,362,0.0003597309405,362,0.002647047397,
361,0.09311746061,361,0.0005931158666,361,0.002600639127,
360,0.09394045174,360,0.0006051953533,360,0.002445121296,
359,0.09294518083,359,0.001329413382,359,0.004115765914,
358,0.09364466369,358,0.0009325069841,358,0.00401691813,
357,0.0943281576,357,0.0004720022844,357,0.003710040124,
356,0.09453014284,356,0.0006324143615,356,0.003133408958,
355,0.09433604032,355,0.001159477513,355,0.003690433456,
354,0.09482453763,354,0.001191481482,354,0.003577562049,
353,0.09516462684,353,0.0008360149222,353,0.003863634774,
352,0.09543784708,352,0.0006408914924,352,0.004287228454,
351,0.09602130949,351,0.0009216894396,351,0.004097578116,
350,0.09618816525,350,0.000629225804,350,0.00414095819,
349,0.1009954587,349,0.002297648462,349,0.005841790233,
348,0.1026513726,348,0.0006151754642,348,0.004086916801,
347,0.1024763584,347,0.002179753035,347,0.003688423196,
346,0.1028198749,346,0.001925050863,346,0.003529801499,
345,0.1030753031,345,0.001531626447,345,0.005324687809,
344,0.1042200625,344,0.0002498455578,344,0.005824474618,
343,0.1046600491,343,-9.043615864E-5,343,0.004211447202,
342,0.1036273241,342,0.001023493707,342,0.007566852029,
341,0.1034033,341,0.001711635385,341,0.008288033307,
340,0.1036114171,340,0.002758687362,340,0.007861522958,
339,0.1048595533,339,0.002222707728,339,0.007523180917,
338,0.1041971967,338,0.001219931291,338,0.009582653642,
337,0.1050530747,337,0.001056811074,337,0.008342230693,
336,0.1057358235,336,-8.929741307E-5,336,0.00790145807,
335,0.1055703163,335,0.001171105658,335,0.01009483915,
334,0.1056548953,334,0.001711375429,334,0.01154811867,
333,0.1055867523,333,0.001895982656,333,0.01402934827,
332,0.1069588512,332,0.002072865376,332,0.01590484753,
331,0.1067302525,331,0.002701118588,331,0.01736911014,
330,0.1064450815,330,0.004606235307,330,0.02133576944,
329,0.1081852689,329,0.003378724912,329,0.02245843038,
328,0.1074254587,328,0.004572357051,328,0.02680757456,
327,0.1079072356,327,0.004953491502,327,0.03137470037,
326,0.1072252095,326,0.008481212892,326,0.03581117466,
325,0.107769303,325,0.007652784698,325,0.04140172899,
324,0.1080722138,324,0.008640069515,324,0.047810819,
323,0.108184278,323,0.01051439997,323,0.05682834238,
322,0.1087490544,322,0.01135442127,322,0.06611511111,
321,0.1082914174,321,0.01321514975,321,0.07717084885,
320,0.1091593727,320,0.01427581534,320,0.08787774295,
319,0.1089726612,319,0.01644035429,319,0.09992434829,
318,0.1091053262,318,0.018909676,318,0.1145074144,
317,0.1094505638,317,0.02075085603,317,0.1292247176,
316,0.1081634238,316,0.02505594678,316,0.1480175406,
315,0.1076377779,315,0.03000393882,315,0.1649546027,
314,0.1092157587,314,0.03218232468,314,0.1831768453,
313,0.1088253036,313,0.03615659848,313,0.205104053,
312,0.1096112579,312,0.04028341174,312,0.2287768126,
311,0.1090413705,311,0.0450527966,311,0.2569390535,
310,0.1106609032,310,0.04961087555,310,0.2817845345,
309,0.1103004143,309,0.05432286486,309,0.3103609681,
308,0.1106797755,308,0.05859069526,308,0.3407773376,
307,0.1102758199,307,0.06309887767,307,0.37152946,
306,0.1102967486,306,0.06916227192,306,0.4011103213,
305,0.1113216281,305,0.07251872867,305,0.4335074425,
304,0.1107128412,304,0.07911223918,304,0.4660725594,
303,0.1101486757,303,0.08480669558,303,0.4978356957,
302,0.1115570739,302,0.08921591192,302,0.5286126137,
301,0.1113179773,301,0.09448364377,301,0.5573777556,
300,0.1106043607,300,0.1007788256,300,0.5874844193,
299,0.1110100895,299,0.1053514853,299,0.6130492091,
298,0.111422956,298,0.1099693403,298,0.6326159239,
297,0.1116022542,297,0.1146200672,297,0.6555212736,
296,0.1121069491,296,0.1193104461,296,0.680722177,
295,0.111788325,295,0.1236597523,295,0.70465523,
294,0.1111439094,294,0.1271315515,294,0.7300000191,
293,0.1120223477,293,0.1292636544,293,0.7499130964,
292,0.1126831025,292,0.1313065141,292,0.7659508586,
291,0.1129091457,291,0.132575646,291,0.7770207524,
290,0.1117648184,290,0.135883078,290,0.7882354856,
289,0.1123148277,289,0.1363401413,289,0.7918686867,
288,0.1126631349,288,0.1369522512,288,0.7947816253,
287,0.1123202294,287,0.1379180551,287,0.7955769897,
286,0.1131220758,286,0.1369051635,286,0.7915841937,
285,0.1129747182,285,0.135773167,285,0.7874169946,
284,0.1127673313,284,0.136052236,284,0.7833184004,
283,0.1124252453,283,0.1352663636,283,0.7775762677,
282,0.1121117771,282,0.1342719048,282,0.7721284628,
281,0.1125850305,281,0.1331487,281,0.7660073042,
280,0.1133143455,280,0.1303888261,280,0.7595450878,
279,0.1127385348,279,0.1306669116,279,0.7530075312,
278,0.112784043,278,0.1296977401,278,0.7469152212,
277,0.1128716841,277,0.1285446286,277,0.7401708961,
276,0.1133938581,276,0.1262366921,276,0.7329721451,
275,0.1133663952,275,0.1259519905,275,0.7264567018,
274,0.1133778617,274,0.1250047982,274,0.7201275229,
273,0.113266997,273,0.1236181483,273,0.7123145461,
272,0.1134759411,272,0.1213851944,272,0.7031522989,
271,0.1135815382,271,0.1194637194,271,0.6933940649,
270,0.1142198518,270,0.1176374182,270,0.6806709766,
269,0.1145004332,269,0.1155963987,269,0.6682991982,
268,0.1148450673,268,0.1133038253,268,0.654559195,
267,0.1146232709,267,0.1107985899,267,0.6409382224,
266,0.1148552895,266,0.10925477,266,0.6257542968,
265,0.1151970997,265,0.1062557623,265,0.6113811731,
264,0.1155872121,264,0.103746824,264,0.5954963565,
263,0.1164604053,263,0.1002641246,263,0.5782876611,
262,0.1170030162,262,0.09737043828,262,0.5608659387,
261,0.1176105738,261,0.09372434765,261,0.542750001,
260,0.117979899,260,0.09125050902,260,0.5246372819,
259,0.1190755591,259,0.08786807954,259,0.5047950745,
258,0.1200207099,258,0.08427172154,258,0.4854393005,
257,0.1213332638,257,0.08104166389,257,0.4662314057,
256,0.1222617328,256,0.0773172453,256,0.4468366504,
255,0.123205632,255,0.07465024292,255,0.4278977811,
254,0.1252601892,254,0.07111582905,254,0.4093173146,
253,0.1265043765,253,0.06832668185,253,0.3923247755,
252,0.1281928569,252,0.06541588902,252,0.3764435649,
251,0.1302052736,251,0.06264851987,251,0.3613828123,
250,0.1323406845,250,0.06025381014,250,0.3477001786,
249,0.1346939802,249,0.05831237137,249,0.3356362581,
248,0.1363689452,248,0.0573085323,248,0.3264001608,
247,0.1394873857,247,0.05565975606,247,0.3176138699,
246,0.1420873851,246,0.05492468178,246,0.3119489849,
245,0.1457787752,245,0.05366918445,245,0.3075865209,
244,0.1492305696,244,0.05350635946,244,0.3048403561,
243,0.1529557854,243,0.05315967649,243,0.3048000038,
242,0.1569377035,242,0.05345989391,242,0.3068677187,
241,0.1611666679,241,0.05419577658,241,0.3098231554,
240,0.1653128117,240,0.05596550554,240,0.3165747225,
239,0.1709335148,239,0.05681772158,239,0.3235841095,
238,0.1758428961,238,0.05851669982,238,0.3331952989,
237,0.1816665232,237,0.06041514128,237,0.3442911804,
236,0.1876861602,236,0.06310872734,236,0.3579421341,
235,0.1939653009,235,0.06638741493,235,0.3739283383,
234,0.2015322298,234,0.06866137683,234,0.3907446861,
233,0.2085559368,233,0.07277245075,233,0.4096971452,
232,0.2167855203,232,0.07637055218,232,0.431984365,
231,0.2258753926,231,0.08042042702,231,0.4555132091,
230,0.2350285202,230,0.08464799821,230,0.4811432362,
229,0.2445157915,229,0.08957413584,229,0.5096655488,
228,0.2547413409,228,0.09477134049,228,0.5390204787,
227,0.2654229999,227,0.100606285,227,0.5685765147,
226,0.2767585218,226,0.1062877327,226,0.599840045,
225,0.2895058393,225,0.1110651121,225,0.6303277612,
224,0.3020500541,224,0.1174236163,224,0.6636348963,
223,0.3160286248,223,0.1232548952,223,0.6945953965,
222,0.3312929869,222,0.1277211159,222,0.7237892747,
221,0.3464359045,221,0.1339437813,221,0.7551820874,
220,0.3627560139,220,0.1383822113,220,0.787471652,
219,0.3796198666,219,0.1446617544,219,0.8226152658,
218,0.4002209604,218,0.1501533538,218,0.8508054614,
217,0.418436408,217,0.1575619727,217,0.8880607486,
216,0.4378122091,216,0.1650294214,216,0.9299934506,
215,0.459479481,215,0.1734699905,215,0.9796946049,
214,0.4838705659,214,0.1809547544,214,1.025512099,
213,0.5090017915,213,0.1919133961,213,1.079411268,
212,0.5379853845,212,0.2030093819,212,1.152679682,
211,0.5715591908,211,0.2137071192,211,1.239429474,
210,0.611635685,210,0.2267216891,210,1.331698179,
209,0.6580405235,209,0.2435703576,209,1.379223585,
208,0.7163209319,208,0.2596514225,208,1.394310474,
207,0.7889586687,207,0.2819565833,207,1.587062716,
206,0.8796474338,206,0.3104901016,206,10,
205,0.994120419,205,0.3415011764,205,2.548654318,
204,1.141404867,204,0.3627048433,204,1.704704762,
203,1.319827437,203,0.3840833306,203,0.9790160656,
202,1.53262949,202,0.3081429303,202,0.8015472889,
201,1.767656326,201,0.2017843574,201,10,
200,1.939511418,200,0.5373978019,200,10,

Baseline 100%T,
Baseline 100%T
Collection Time: 2024-03-13 오후 9:51:12
Operator Name  :
Scan Software Version: 4.20(468)
Parameter List :
Instrument                        Cary 5000
Instrument Version                1.12
Start (nm)                        800.00
Stop (nm)                         200.00
X Mode                            Nanometers
Y Mode                            Abs
UV-Vis Scan Rate (nm/min)         30.000
UV-Vis Data Interval (nm)         1.000
UV-Vis Ave. Time (sec)            2.000
UV-Vis SBW (nm)                   1.000
Slit Height                       Full
Beam Mode                         Double
Signal-to-noise Mode              Off
UV Source                         On
Vis Source                        On
Third Source                      Off
Source Changeover (nm)            350.00
Detector Changeover (nm)          800.00
Grating Changeover (nm)           800.00
Baseline Correction               On
Baseline Type                     Baseline correction
Baseline File Name
Baseline Std Ref File Name
Cycle Mode                        Off
Comments
Method Log     :
Method Name    :
Date/Time stamp: 2024-03-13 오후 7:29:35
Method Modifications:
UVVIS SAT Changed: 2024-03-13 오후 7:30:08, Old: 0.100, New: 1.000
NIR SAT Changed: 2024-03-13 오후 7:30:08, Old: 0.100, New: 1.000
Common SAT Changed: 2024-03-13 오후 7:30:08, Old: 0.100, New: 1.000
Cycle mode Changed: 2024-03-13 오후 7:30:29, Old:0, New:1
Cycle Period Changed: 2024-03-13 오후 7:30:29, Old:     1.00, New:    15.00
Baseline Correction Changed: 2024-03-13 오후 7:30:43, Old:0, New:1
Saved as D:\data\yaroslav\Hantzsch-ester-HRP01\baseline-test1.BSWNum Cycles Changed: 2024-03-13 오후 7:42:20, Old:1, New:10
Saved as D:\data\yaroslav\Hantzsch-ester-HRP01\baseline-test1.BSW
Cycle mode Changed: 2024-03-13 오후 8:39:46, Old:1, New:0
SBW Changed: 2024-03-13 오후 8:54:48, Old:2.000, New:0.500
NIR slit width Changed: 2024-03-13 오후 8:54:48, Old:2.000, New:0.500
Common Slit Width Changed: 2024-03-13 오후 8:54:48, Old:2.000, New:0.500
UVVIS SAT Changed: 2024-03-13 오후 9:15:44, Old: 1.000, New: 4.000
NIR SAT Changed: 2024-03-13 오후 9:15:44, Old: 1.000, New: 4.000
Common SAT Changed: 2024-03-13 오후 9:15:44, Old: 1.000, New: 4.000
UVVIS SAT Changed: 2024-03-13 오후 9:18:11, Old: 4.000, New: 1.000
NIR SAT Changed: 2024-03-13 오후 9:18:11, Old: 4.000, New: 1.000
Common SAT Changed: 2024-03-13 오후 9:18:11, Old: 4.000, New: 1.000
UVVIS SAT Changed: 2024-03-13 오후 9:18:20, Old: 1.000, New: 2.000
NIR SAT Changed: 2024-03-13 오후 9:18:20, Old: 1.000, New: 2.000
Common SAT Changed: 2024-03-13 오후 9:18:20, Old: 1.000, New: 2.000
SBW Changed: 2024-03-13 오후 9:51:08, Old:0.500, New:1.000
NIR slit width Changed: 2024-03-13 오후 9:51:08, Old:0.500, New:1.000
Common Slit Width Changed: 2024-03-13 오후 9:51:08, Old:0.500, New:1.000
End Method Modifications
<SBW (nm)> , 1.00
<Energy> , 1995.26
<Slit height> , Full
<Current Wavelength> , 199.00

dm_37_SBW1nm_repeat1,
dm_37_SBW1nm_repeat1
Collection Time: 2024-03-13 오후 10:20:28
Operator Name  :
Scan Software Version: 4.20(468)
Parameter List :
Instrument                        Cary 5000
Instrument Version                1.12
Start (nm)                        800.00
Stop (nm)                         200.00
X Mode                            Nanometers
Y Mode                            Abs
UV-Vis Scan Rate (nm/min)         30.000
UV-Vis Data Interval (nm)         1.000
UV-Vis Ave. Time (sec)            2.000
UV-Vis SBW (nm)                   1.000
Slit Height                       Full
Beam Mode                         Double
Signal-to-noise Mode              Off
UV Source                         On
Vis Source                        On
Third Source                      Off
Source Changeover (nm)            350.00
Detector Changeover (nm)          800.00
Grating Changeover (nm)           800.00
Baseline Correction               On
Baseline Type                     Baseline correction
Baseline File Name
Baseline Std Ref File Name
Cycle Mode                        Off
Comments
Method Log     :
Method Name    :
Date/Time stamp: 2024-03-13 오후 7:29:35
Method Modifications:
UVVIS SAT Changed: 2024-03-13 오후 7:30:08, Old: 0.100, New: 1.000
NIR SAT Changed: 2024-03-13 오후 7:30:08, Old: 0.100, New: 1.000
Common SAT Changed: 2024-03-13 오후 7:30:08, Old: 0.100, New: 1.000
Cycle mode Changed: 2024-03-13 오후 7:30:29, Old:0, New:1
Cycle Period Changed: 2024-03-13 오후 7:30:29, Old:     1.00, New:    15.00
Baseline Correction Changed: 2024-03-13 오후 7:30:43, Old:0, New:1
Saved as D:\data\yaroslav\Hantzsch-ester-HRP01\baseline-test1.BSWNum Cycles Changed: 2024-03-13 오후 7:42:20, Old:1, New:10
Saved as D:\data\yaroslav\Hantzsch-ester-HRP01\baseline-test1.BSW
Cycle mode Changed: 2024-03-13 오후 8:39:46, Old:1, New:0
SBW Changed: 2024-03-13 오후 8:54:48, Old:2.000, New:0.500
NIR slit width Changed: 2024-03-13 오후 8:54:48, Old:2.000, New:0.500
Common Slit Width Changed: 2024-03-13 오후 8:54:48, Old:2.000, New:0.500
UVVIS SAT Changed: 2024-03-13 오후 9:15:44, Old: 1.000, New: 4.000
NIR SAT Changed: 2024-03-13 오후 9:15:44, Old: 1.000, New: 4.000
Common SAT Changed: 2024-03-13 오후 9:15:44, Old: 1.000, New: 4.000
UVVIS SAT Changed: 2024-03-13 오후 9:18:11, Old: 4.000, New: 1.000
NIR SAT Changed: 2024-03-13 오후 9:18:11, Old: 4.000, New: 1.000
Common SAT Changed: 2024-03-13 오후 9:18:11, Old: 4.000, New: 1.000
UVVIS SAT Changed: 2024-03-13 오후 9:18:20, Old: 1.000, New: 2.000
NIR SAT Changed: 2024-03-13 오후 9:18:20, Old: 1.000, New: 2.000
Common SAT Changed: 2024-03-13 오후 9:18:20, Old: 1.000, New: 2.000
SBW Changed: 2024-03-13 오후 9:51:08, Old:0.500, New:1.000
NIR slit width Changed: 2024-03-13 오후 9:51:08, Old:0.500, New:1.000
Common Slit Width Changed: 2024-03-13 오후 9:51:08, Old:0.500, New:1.000
End Method Modifications
<SBW (nm)> , 1.00
<Energy> , 1995.26
<Slit height> , Full
<Current Wavelength> , 200.00

dm_37_SBW1nm_repeat2,
dm_37_SBW1nm_repeat2
Collection Time: 2024-03-13 오후 10:43:05
Operator Name  :
Scan Software Version: 4.20(468)
Parameter List :
Instrument                        Cary 5000
Instrument Version                1.12
Start (nm)                        800.00
Stop (nm)                         200.00
X Mode                            Nanometers
Y Mode                            Abs
UV-Vis Scan Rate (nm/min)         30.000
UV-Vis Data Interval (nm)         1.000
UV-Vis Ave. Time (sec)            2.000
UV-Vis SBW (nm)                   1.000
Slit Height                       Full
Beam Mode                         Double
Signal-to-noise Mode              Off
UV Source                         On
Vis Source                        On
Third Source                      Off
Source Changeover (nm)            350.00
Detector Changeover (nm)          800.00
Grating Changeover (nm)           800.00
Baseline Correction               On
Baseline Type                     Baseline correction
Baseline File Name
Baseline Std Ref File Name
Cycle Mode                        Off
Comments
Method Log     :
Method Name    :
Date/Time stamp: 2024-03-13 오후 7:29:35
Method Modifications:
UVVIS SAT Changed: 2024-03-13 오후 7:30:08, Old: 0.100, New: 1.000
NIR SAT Changed: 2024-03-13 오후 7:30:08, Old: 0.100, New: 1.000
Common SAT Changed: 2024-03-13 오후 7:30:08, Old: 0.100, New: 1.000
Cycle mode Changed: 2024-03-13 오후 7:30:29, Old:0, New:1
Cycle Period Changed: 2024-03-13 오후 7:30:29, Old:     1.00, New:    15.00
Baseline Correction Changed: 2024-03-13 오후 7:30:43, Old:0, New:1
Saved as D:\data\yaroslav\Hantzsch-ester-HRP01\baseline-test1.BSWNum Cycles Changed: 2024-03-13 오후 7:42:20, Old:1, New:10
Saved as D:\data\yaroslav\Hantzsch-ester-HRP01\baseline-test1.BSW
Cycle mode Changed: 2024-03-13 오후 8:39:46, Old:1, New:0
SBW Changed: 2024-03-13 오후 8:54:48, Old:2.000, New:0.500
NIR slit width Changed: 2024-03-13 오후 8:54:48, Old:2.000, New:0.500
Common Slit Width Changed: 2024-03-13 오후 8:54:48, Old:2.000, New:0.500
UVVIS SAT Changed: 2024-03-13 오후 9:15:44, Old: 1.000, New: 4.000
NIR SAT Changed: 2024-03-13 오후 9:15:44, Old: 1.000, New: 4.000
Common SAT Changed: 2024-03-13 오후 9:15:44, Old: 1.000, New: 4.000
UVVIS SAT Changed: 2024-03-13 오후 9:18:11, Old: 4.000, New: 1.000
NIR SAT Changed: 2024-03-13 오후 9:18:11, Old: 4.000, New: 1.000
Common SAT Changed: 2024-03-13 오후 9:18:11, Old: 4.000, New: 1.000
UVVIS SAT Changed: 2024-03-13 오후 9:18:20, Old: 1.000, New: 2.000
NIR SAT Changed: 2024-03-13 오후 9:18:20, Old: 1.000, New: 2.000
Common SAT Changed: 2024-03-13 오후 9:18:20, Old: 1.000, New: 2.000
SBW Changed: 2024-03-13 오후 9:51:08, Old:0.500, New:1.000
NIR slit width Changed: 2024-03-13 오후 9:51:08, Old:0.500, New:1.000
Common Slit Width Changed: 2024-03-13 오후 9:51:08, Old:0.500, New:1.000
End Method Modifications
<SBW (nm)> , 1.00
<Energy> , 1995.26
<Slit height> , Full
<Current Wavelength> , 200.00

