Baseline 100%T,,baseline_air_1_1,,baseline_air_1_1,,baseline_air_1_2,,baseline_air_1_3,,Baseline 100%T,,Baseline 100%T,,HRP01_0.4mg_per_20_mL_repeat1,,
Wavelength (nm),Abs,Wavelength (nm),Abs,Wavelength (nm),Abs,Wavelength (nm),Abs,Wavelength (nm),Abs,Wavelength (nm),Abs,Wavelength (nm),Abs,Wavelength (nm),Abs,
800,0.02910542302,800,0.000360611768,800,0.000549103599,800,0.0003310782777,800,0.05884966254,800,0.06679227948,800,0.06670778245,800,4.670079943E-5,
799,0.0294596795,799,3.839058627E-5,799,-2.541927643E-5,799,-0.0002055894583,799,0.05817268416,799,0.06682295352,799,0.0663562566,799,-0.000159480056,
798,0.02917285636,798,0.0006464652251,798,0.0002922473359,798,0.0004500535724,798,0.05840806663,798,0.06606058776,798,0.06605012715,798,-3.256332639E-5,
797,0.02922274731,797,-1.252862785E-5,797,0.0005604820908,797,0.0001860823104,797,0.05851370841,797,0.06623910367,797,0.06607975811,797,0.0004160054959,
796,0.0291759856,,,796,0.0003757679078,796,0.0006944801426,796,0.05848767236,796,0.06595240533,796,0.06618387252,796,-5.911952758E-5,
795,0.02908676676,,,795,0.0001769407536,795,0.0006171715213,795,0.05857629701,795,0.066173926,795,0.06601929665,795,-6.999001926E-5,
794,0.02926428057,,,794,0.0001002938225,794,0.0001845025981,794,0.05822720379,794,0.06601326913,794,0.06558270007,794,-0.0001015646631,
793,0.02935068309,,,793,-9.276540368E-5,793,3.404138261E-5,793,0.05789086968,793,0.06622562557,793,0.0654855594,793,3.63971958E-5,
792,0.02933279239,,,792,5.073946159E-5,792,-0.000178317714,792,0.05794145167,792,0.06544408202,792,0.06557646394,792,-0.0002554711245,
791,0.02879515477,,,791,0.0001469277195,791,0.0002674844,791,0.05874646083,791,0.06561406702,791,0.06515992433,791,0.0001053427768,
790,0.02868015692,,,790,0.0006320514367,790,0.000515902997,790,0.05870941654,790,0.06525364518,790,0.06550626457,790,-0.0002692341513,
789,0.02880090848,,,789,0.0001229498594,789,0.000114534625,,,789,0.06549398601,789,0.06552613527,789,-0.0003823227307,
788,0.02889034525,,,788,-9.940097698E-6,788,0.0002725612139,,,788,0.06564670801,788,0.06539671868,788,-6.854063395E-5,
787,0.02900296263,,,787,0.0001155444479,787,-0.0002276333107,,,787,0.06520103663,787,0.06503722817,787,-0.0001493363525,
786,0.02861454152,,,786,0.0002477993839,786,0.000289423886,,,786,0.06493509561,786,0.06503932923,786,-0.0004004783113,
785,0.0286611598,,,785,-0.0001101567104,785,0.0002123168233,,,785,0.06482975185,785,0.06482331455,785,9.480476001E-5,
784,0.02865109593,,,784,1.470347888E-5,784,-6.005129399E-5,,,784,0.06497288495,784,0.06477430463,784,0.0003446271585,
783,0.02848925442,,,783,0.0001269374479,783,0.000230860649,,,783,0.06485830247,783,0.06465817988,783,0.0003785919398,
782,0.02846272103,,,782,8.985949535E-5,782,0.0002741153585,,,782,0.06501410902,782,0.06468656659,782,0.0001812654809,
781,0.02814230509,,,781,0.0003173743607,781,0.0002752550645,,,781,0.0647161603,781,0.06435263902,781,0.0005126375472,
780,0.02830423787,,,780,0.0002996816766,780,-1.190752869E-6,,,780,0.06469299644,780,0.06444436312,780,0.0003945518984,
779,0.02813186496,,,779,-0.0001865977392,779,6.616957398E-5,,,779,0.06453189999,779,0.06457623094,779,0.0001358708105,
778,0.02815926448,,,778,-0.0001437986357,778,8.975592937E-5,,,778,0.0651807934,778,0.064483881,778,0.0003332025371,
777,0.02811808512,,,777,-0.0001095873595,777,-0.0001072064479,,,777,0.06487522274,777,0.06482277811,777,-5.880893877E-5,
776,0.02815050818,,,776,-0.0002107641776,776,-0.0001033762528,,,776,0.06481610239,776,0.06458647549,776,-0.0001156431099,
775,0.02790893242,,,775,2.948511792E-5,775,0.0003590573324,,,775,0.06466535479,775,0.06456046551,775,0.0002144664177,
774,0.02791359834,,,774,0.0003025570186,774,-0.0003722877009,,,774,0.06458671391,774,0.06444232166,774,-6.657360791E-5,
773,0.02770010382,,,773,0.0003245241824,773,0.0002061529958,,,773,0.06462240219,773,0.06438473612,773,-0.0001355695422,
772,0.02753400989,,,772,1.203714237E-5,772,0.0003006660263,,,772,0.06453099847,772,0.06442581117,772,0.0001425256341,
771,0.02778556012,,,771,-0.0002530392667,771,-2.531573955E-5,,,771,0.06461702287,771,0.06424167007,771,0.0003308710293,
770,0.0274504777,,,770,2.521366514E-5,770,0.0004531890445,,,770,0.06456505507,770,0.064242661,770,0.0002847872383,
769,0.02747132443,,,769,-0.0001619641844,769,0.000110624831,,,769,0.06443610787,769,0.06443424523,769,-0.0001848899992,
768,0.02716911212,,,768,0.0004722614249,768,0.0007080403739,,,768,0.06421793252,768,0.06447787583,768,-0.000107931075,
767,0.02728952467,,,767,0.0001786499197,767,0.0004044494417,,,767,0.06422471255,767,0.06410078704,767,-0.0001240278507,
766,0.02717751637,,,766,-0.0001578239608,766,-3.396106331E-5,,,766,0.06414858252,766,0.06414414197,766,-8.44835813E-5,
765,0.02711942978,,,765,-0.0001148149749,765,0.0001763192267,,,765,0.06420661509,765,0.06408209354,765,8.605348557E-5,
764,0.02701531537,,,764,0.0001841918274,764,0.0003969614918,,,764,0.06407063454,764,0.06384028494,764,0.0001077248744,
763,0.02661774121,,,763,0.0001804626809,763,0.0004642540298,,,763,0.06401030719,763,0.06403519958,763,-7.485577225E-5,
762,0.02668858878,,,762,0.0005020896206,762,0.0004570241726,,,762,0.06379602849,762,0.06373849511,762,-0.0001779554586,
761,0.02670488507,,,761,0.0002428005828,761,0.0001305625628,,,761,0.06337498873,761,0.06377012283,761,-0.0001240796119,
760,0.02646116912,,,760,0.0005697354209,760,0.0001453481527,,,760,0.06346198171,760,0.06301740557,760,0.0001589171443,
759,0.02639921568,,,759,0.0004672859504,759,0.0003612076689,,,759,0.06289513409,759,0.06270755082,759,0.0003061835887,
758,0.02611731924,,,758,0.0004427462409,758,0.0004882507492,,,758,0.06277433783,758,0.06304102391,758,0.0002265613148,
757,0.0262249019,,,757,0.0003713117039,757,0.0003415184037,,,757,0.06316108257,757,0.06284729391,757,0.0002816270862,
756,0.02620089799,,,756,0.0002969358757,756,0.0003758456442,,,756,0.06281415373,756,0.06280440092,756,0.0003261821112,
755,0.02613579296,,,755,0.0002238418674,755,0.0003746020375,,,755,0.06294555217,755,0.06288478523,755,8.126365719E-5,
754,0.0259769205,,,754,0.0003500416642,754,0.0001681101276,,,754,0.0628689006,754,0.06245380268,754,0.0002960033598,
753,0.02603227273,,,753,4.214440196E-5,753,1.346091176E-5,,,753,0.06238180399,753,0.06254000962,753,-3.256332639E-5,
752,0.02571567707,,,752,0.000135119888,752,0.000232803126,,,752,0.06239540502,752,0.0625788793,752,-0.0001907894475,
751,0.0257379245,,,751,-3.525525608E-5,751,7.458387699E-5,,,751,0.06240179762,751,0.06248641387,751,-0.0001846829982,
750,0.02552741766,,,750,0.0001759825827,750,0.0004675191594,,,750,0.06259867549,750,0.0624592118,750,0.000111298039,
749,0.02559009753,,,749,0.0002320261265,749,-6.212628136E-7,,,749,0.06264800578,749,0.06256503612,749,0.0001449338306,
748,0.02537999116,,,748,0.0003274514747,748,0.0004809945822,,,748,0.0624816604,748,0.06252745539,748,8.633828838E-5,
747,0.0255453717,,,747,0.0001292160887,747,9.042910096E-5,,,747,0.06279046088,747,0.06280989945,747,-0.0002814445761,
746,0.02532110177,,,746,-6.782070614E-6,746,0.0001271187066,,,746,0.0625609979,746,0.06295435131,746,-3.758479943E-5,
745,0.02506754734,,,745,0.0001842954225,745,0.0004507791309,,,745,0.06319697946,745,0.06295731664,745,0.0001007080937,
744,0.0252191741,,,744,-0.0002840314992,744,0.0001595127396,,,744,0.06348405778,744,0.06340326369,744,0.0001571303583,
743,0.02493505366,,,743,0.0001354565029,743,0.000262200454,,,743,0.06386883557,743,0.06361372024,743,0.0001508119458,
742,0.02497941442,,,742,0.0002233756823,742,0.0001225614687,,,742,0.06372323632,742,0.06385725737,742,2.081281673E-5,
741,0.02482430823,,,741,0.000217392997,741,0.0005481446278,,,741,0.0637408644,741,0.06366502494,741,0.0001726419432,
740,0.02473244444,,,740,0.0003592127759,740,0.0001024946396,,,740,0.06338256598,740,0.06309070438,740,1.832765156E-5,
739,0.02481838875,,,739,-6.600420602E-5,739,0.0001887238177,,,739,0.06284487247,739,0.06291174144,739,-5.068176688E-5,
738,0.02481805906,,,738,-8.971150237E-5,738,0.0003249904839,,,738,0.06245960295,738,0.0623119995,738,2.164120815E-5,
737,0.02426832169,,,737,0.0002572014637,737,0.0004961289815,,,737,0.06176778302,737,0.06190230325,737,-1.428881933E-5,
736,0.02450270392,,,736,7.354826084E-5,736,4.522514064E-5,,,736,0.06139405072,736,0.06154229492,736,-0.0001988622389,
735,0.02415230125,,,735,0.0004215763474,735,0.0007066661492,,,735,0.06050927937,735,0.06113371253,735,-0.000356665696,
734,0.0243975725,,,734,1.749926741E-5,734,5.855800919E-5,,,734,0.06023112312,734,0.06067499146,734,-0.0005372156156,
733,0.02414025925,,,733,0.0001559391822,733,0.0002384234249,,,733,0.05970996618,733,0.0606709756,733,-0.0008250816609,
732,0.02415096015,,,732,-0.0001354142732,732,0.0001223284198,,,732,0.05933200568,732,0.06052912772,732,-0.001000994933,
731,0.02405891009,,,731,4.887545947E-5,731,6.541876792E-5,,,731,0.05888508633,731,0.06021982059,731,-0.001227742876,
730,0.0236922428,,,730,0.0005123265437,730,0.0003233584284,,,730,0.05881868675,730,0.06000550836,730,-0.001099950285,
729,0.02353284135,,,729,0.0004020138877,729,0.000609446608,,,729,0.05870275199,729,0.05970004946,729,-0.0009034635732,
728,0.02359736525,,,728,0.000253445789,728,0.0005648625083,,,728,0.05841055512,728,0.05930102617,728,-0.000880162348,
727,0.02336535603,,,727,0.0005786001566,727,0.0004637875827,,,727,0.05824226886,727,0.05831035599,727,-0.0004396317818,
726,0.02376545779,,,726,-0.0001488705748,726,8.188503853E-5,,,726,0.05780084804,726,0.05779596791,726,6.210487481E-5,
725,0.02370129153,,,725,-7.702980656E-5,725,-3.230448783E-5,,,725,0.05763407052,725,0.05753263086,725,0.0001948873978,
724,0.02324214764,,,724,0.0004855814914,724,0.0004147876753,,,724,0.05740164593,724,0.05741993338,724,0.0001905884274,
723,0.02319599874,,,723,0.0003063131298,723,0.0002778453054,,,723,0.05724464729,723,0.05723983422,723,0.0002097269753,
722,0.02316121198,,,722,0.0001324787008,722,0.0002974798554,,,722,0.05743151531,722,0.05721576512,722,-1.672201324E-5,
721,0.02307761461,,,721,0.0003331507323,721,0.0003498085134,,,721,0.05717823282,721,0.05711227283,721,-6.108658999E-5,
720,0.02313502692,,,720,-0.0001074134852,720,6.324402784E-5,,,720,0.05691707134,720,0.05692492425,720,1.58683888E-5,
719,0.02296417579,,,719,5.726353629E-5,719,0.0001181078478,,,719,0.05674626678,719,0.05653321743,719,0.0001849687396,
718,0.0228987094,,,718,0.0001173051642,718,0.0002753068693,,,718,0.05666650832,718,0.05657033995,718,0.0002788814018,
717,0.02274467051,,,717,0.0001551623282,717,0.0004207212769,,,717,0.05673025176,717,0.05658186972,717,0.0001922717493,
716,0.02271862142,,,716,0.0002491721534,716,0.0001529353467,,,716,0.05655200034,716,0.05642599612,716,0.0002435775968,
715,0.02241658792,,,715,0.0005275657168,715,0.0004463739751,,,715,0.05647773296,715,0.05621156842,715,0.000410693814,
714,0.02249924093,,,714,0.0001351975661,714,0.0003298606898,,,714,0.05613948032,714,0.05608987436,714,0.0001201792911,
713,0.02255117893,,,713,6.974239659E-5,713,9.50895701E-5,,,713,0.05602787808,713,0.05618785322,713,-0.0001483530359,
712,0.02229768224,,,712,0.0002895793004,712,0.0005274879513,,,712,0.05595646799,712,0.05601447821,712,-8.365539543E-5,
711,0.02225111425,,,711,0.0003537981829,711,0.000406548148,,,711,0.05581032112,711,0.05604381114,711,-8.877979417E-5,
710,0.02206671983,,,710,0.0004421243502,710,0.0004085691471,,,710,0.05594377592,710,0.05569792166,710,0.0001662715076,
709,0.02221670374,,,709,0.0001618433453,709,0.0003663114621,,,709,0.05578786507,709,0.05555427819,709,0.0003090330574,
708,0.02221743949,,,708,-0.0001208188914,708,-0.0001482495136,,,708,0.05547838658,708,0.05525654927,708,0.0003375288507,
707,0.02211185172,,,707,-0.0001414178987,707,0.0001284133905,,,707,0.05542365089,707,0.05532016978,707,2.865671195E-5,
706,0.02218392864,,,706,-0.0001116059502,706,-3.696358908E-5,,,706,0.05544294417,706,0.05530864373,706,0.0001342912728,
705,0.02178623341,,,705,0.0001018991243,705,0.0003900695883,,,705,0.05537524447,705,0.05512806773,705,0.0002221325267,
704,0.02188833803,,,704,-7.935912436E-5,704,0.0001307438215,,,704,0.05522509292,704,0.05520099029,704,1.252898983E-5,
703,0.02164306492,,,703,0.0002919106046,703,0.0004511937441,,,703,0.05511149392,703,0.05481732637,703,0.0003823486913,
702,0.02184124291,,,702,-0.0001134175036,702,-0.000239482717,,,702,0.05472843722,702,0.05455112457,702,0.0003305860737,
701,0.02151338011,,,701,-9.799322288E-5,701,0.0001671519713,,,701,0.05480986834,701,0.05482716486,701,2.821579756E-6,
700,0.02165484615,,,700,-0.0001458688203,700,0.0001159328385,,,700,0.05470585823,700,0.0547330454,700,0.0001080873699,
699,0.0212803334,,,699,0.0004652905918,699,0.00034226969,,,699,0.05478713661,699,0.05460897833,699,0.0001199980397,
698,0.02129569463,,,698,0.0001488439302,698,0.0003587982501,,,698,0.05450997502,698,0.05442593247,698,0.0002873516351,
697,0.0211258363,,,697,0.0004262403527,697,0.0002281152847,,,697,0.0543353036,697,0.05411120504,697,0.0003859500284,
696,0.02122656442,,,696,3.313530397E-5,696,-9.188546392E-5,,,696,0.05429752171,696,0.05426179618,696,-4.384861677E-5,
695,0.02099413238,,,695,0.0003254049516,695,0.000388074579,,,695,0.05416920781,695,0.05417970568,695,6.689449219E-5,
694,0.02109249309,,,694,9.656539623E-5,694,0.0001692495571,,,694,0.05426557735,694,0.05427690223,694,-0.0001169370589,
693,0.02093675733,,,693,0.0002949154004,693,0.0002410652523,,,693,0.05405283347,693,0.05407787114,693,9.226739348E-5,
692,0.02102347463,,,692,0.0001562758116,692,7.033786824E-5,,,692,0.05401818082,692,0.05393792689,692,0.0003124783689,
691,0.02074686624,,,691,2.976988435E-5,691,0.0003498085134,,,691,0.05385794863,691,0.05404963717,691,-0.000196016088,
690,0.02088226937,,,690,0.0001165801586,690,-1.221800539E-5,,,690,0.05376412719,690,0.05358577147,690,0.0001920127834,
689,0.02080872282,,,689,-3.62403398E-7,689,3.215156175E-5,,,689,0.05375457928,689,0.05392403528,689,-4.15191098E-5,
688,0.02055523731,,,688,0.0001494654134,688,0.0002023718698,,,688,0.05373948812,688,0.05361962691,688,0.0001850723347,
687,0.02060694434,,,687,0.0001998597727,687,6.200131611E-5,,,687,0.05364683643,687,0.05337368324,687,0.0001753869583,
686,0.02059315518,,,686,-6.507244689E-5,686,-2.635111559E-5,,,686,0.053575553,686,0.0533744134,686,-8.645052731E-5,
685,0.02045539953,,,685,7.63962089E-5,685,5.925702499E-5,,,685,0.053597752,685,0.05338811129,685,-3.142442802E-5,
684,0.02030944079,,,684,0.0003332284396,684,0.0002336578182,,,684,0.0535098128,684,0.0532540679,684,0.0002941901039,
683,0.02021253295,,,683,0.0002218994341,683,0.0002535234962,,,683,0.05351959169,683,0.05340561643,683,4.253272709E-5,
682,0.02019016072,,,682,0.0001613772183,682,0.0002535234962,,,682,0.05311810598,682,0.05313258618,682,5.278469689E-5,
681,0.02022847906,,,681,8.693378186E-5,681,0.0001441311033,,,681,0.05310771987,681,0.0532541275,681,-0.0001681744616,
680,0.02014677413,,,680,7.360004383E-5,680,3.163380461E-5,,,680,0.05314894021,680,0.05318232253,680,-1.48065219E-5,
679,0.01995687373,,,679,0.0002165642218,679,0.0002933093929,,,679,0.05309373513,679,0.05311269313,679,5.674575004E-5,
678,0.02002507076,,,678,7.11663597E-5,678,8.874616469E-5,,,678,0.05297691748,678,0.05304251984,678,0.0001820423931,
677,0.01988803782,,,677,6.666148693E-5,677,4.380126848E-5,,,677,0.05284531042,677,0.05279044062,677,7.919239579E-5,
676,0.01996321604,,,676,-0.0001836997399,676,-0.0001020822601,,,676,0.05294185504,676,0.05267344043,676,6.585889787E-5,
675,0.01969340257,,,675,0.0001608593011,675,0.0003384614538,,,675,0.05277754739,675,0.05281534418,675,0.0001402469352,
674,0.01964004338,,,674,0.0002635214478,674,0.000239200439,,,674,0.05293162167,674,0.05288235471,674,1.913015149E-5,
673,0.01960665174,,,673,0.0001846320811,673,8.172968955E-5,,,673,0.05274489895,673,0.05256330967,673,1.571306711E-5,
672,0.01959841885,,,672,7.618908421E-5,672,0.0001599270618,,,672,0.05258145183,672,0.05237735808,672,0.0002990340872,
671,0.01942370087,,,671,0.0001098221619,671,0.0001781060855,,,671,0.05259761214,671,0.05255825445,671,-3.458227729E-5,
670,0.0193710532,,,670,0.0002239454625,670,0.0002839324297,,,670,0.05257970095,670,0.0524155274,670,0.0001970628073,
669,0.01928030699,,,669,1.907837759E-5,669,0.0002023459674,,,669,0.05238947645,669,0.05226660147,669,0.0001132658799,
668,0.01931535266,,,668,9.998311725E-5,668,0.0002609571675,,,668,0.05231404677,668,0.05220333487,668,0.000120981982,
667,0.01909768395,,,667,0.0002460381365,667,0.0003598863841,,,667,0.05228983983,667,0.05206408352,667,0.0001941104711,
666,0.019043101,,,666,0.0002878178784,666,0.0005325159873,,,666,0.05232955143,666,0.05229355022,666,-7.397579611E-5,
665,0.01905976236,,,665,-4.524631731E-5,665,0.0001261606521,,,665,0.05207657069,665,0.05190961435,665,0.0001840364566,
664,0.01903444715,,,664,0.0001194283905,664,4.592413461E-5,,,664,0.05204134807,664,0.05197111517,664,1.806878208E-5,
663,0.01906014048,,,663,1.043217071E-5,663,3.844236562E-5,,,663,0.05205550417,663,0.05198891461,663,8.645999515E-6,
662,0.01877826452,,,662,0.0003070643288,662,0.0004511160078,,,662,0.05182866752,662,0.05186516047,662,4.418959725E-5,
661,0.01882383786,,,661,8.222161705E-5,661,0.0002641948813,,,661,0.05197161064,661,0.05196697265,661,0.0001192212439,
660,0.01882932521,,,660,6.663559179E-5,660,-7.092176384E-5,,,660,0.05182788149,660,0.05164822191,660,0.0001944212418,
659,0.01885254867,,,659,4.579469169E-5,659,0.0001131364188,,,659,0.05166906863,659,0.05169064179,659,0.0001167873052,
658,0.01851264201,,,658,0.0001596940128,658,0.0003260525991,,,658,0.05181700364,658,0.05176199973,658,4.240328781E-5,
657,0.01858123392,,,657,0.0002112290822,657,0.000336751662,,,657,0.05174313113,657,0.05139196664,657,0.0003642129304,
656,0.01855143532,,,656,8.438907571E-6,656,0.0001127480282,,,656,0.05159539357,656,0.05146225169,656,0.0001546703133,
655,0.01844654605,,,655,7.347059E-5,655,0.0002829222358,,,655,0.05149769038,655,0.05139298737,655,0.0002672771807,
654,0.01836306788,,,654,0.0003496789723,654,0.0002105816238,,,654,0.05156472698,654,0.05141839385,654,0.000157078568,
653,0.01826073602,,,653,0.0001809547248,653,0.0002157354611,,,653,0.05146111548,653,0.05130607635,653,4.783990516E-5,
652,0.01845421642,,,652,-7.0973525E-5,652,-8.542285286E-6,,,652,0.05131711811,652,0.05127819628,652,0.0001189623144,
651,0.0182087142,,,651,0.0002134304668,651,0.000287222123,,,651,0.05131181329,651,0.05129139498,651,3.253987961E-5,
650,0.01810199209,,,650,0.0002384234249,650,0.0004427721433,,,650,0.05127044767,650,0.05127706006,650,7.504990936E-5,
649,0.01816590317,,,649,-5.725598749E-5,649,0.0001572857291,,,649,0.05111737177,649,0.05108851567,649,0.0001574929047,
648,0.018104285,,,648,9.681460142E-6,648,8.667486691E-5,,,648,0.05109768733,648,0.05103019625,648,0.000198823851,
647,0.01800061017,,,647,0.0001612477354,647,0.0002877401712,,,647,0.05113772675,647,0.05108496174,647,7.088156417E-5,
646,0.01789029688,,,646,0.0002825336705,646,0.0003214932512,,,646,0.05125381798,646,0.05109704658,646,0.0001155444479,
645,0.01798237115,,,645,0.0001844249055,645,0.0001481965592,,,645,0.05097290501,645,0.05092487484,645,1.294317735E-5,
644,0.01790362224,,,644,0.0001030901622,644,0.0001970887097,,,644,0.050922025,644,0.0508976914,644,8.488838648E-5,
643,0.01801183447,,,643,-1.967329126E-6,643,0.0001489216229,,,643,0.0510086827,643,0.05092740804,643,7.360004383E-5,
642,0.01781078428,,,642,0.0001322197641,642,0.0003305083374,,,642,0.05098874122,642,0.05089018121,642,0.0001075695181,
641,0.01781075634,,,641,0.0001486367837,641,0.0002099082631,,,641,0.051034417,641,0.05088206381,641,9.470119403E-5,
640,0.01785320975,,,640,0.0001035821115,640,0.0002603614412,,,640,0.05097211897,640,0.05100393668,640,7.150293095E-5,
639,0.01782785542,,,639,0.000195327666,639,0.0002705926599,,,639,0.05106501654,639,0.05107083917,639,3.927078797E-5,
638,0.01785811782,,,638,0.0001811878028,638,6.899158325E-5,,,638,0.05110630393,638,0.05088069662,638,3.890835433E-5,
637,0.01787457243,,,637,2.078693069E-5,637,0.000189966886,,,637,0.05096390843,637,0.05089434609,637,9.692788444E-5,
636,0.01797859371,,,636,-1.967289063E-5,636,-2.019100748E-6,,,636,0.05100108311,636,0.05100009218,636,0.0001434578444,
635,0.01795158722,,,635,-7.921034012E-6,635,8.460358367E-5,,,635,0.05113627017,635,0.05105773732,635,0.0001331001549,
634,0.01795496047,,,634,8.848725702E-5,634,0.0001224578882,,,634,0.05124586448,634,0.05115933344,634,8.343849186E-5,
633,0.01808874123,,,633,-5.171708472E-5,633,4.944501416E-5,,,633,0.0512316227,633,0.05113947392,633,0.0002872480254,
632,0.01801693439,,,632,2.588604502E-6,632,0.0001469018316,,,632,0.05133320019,632,0.05119629204,632,0.000184891047,
631,0.01816636138,,,631,-2.769710227E-5,631,8.455180068E-5,,,631,0.05135854706,631,0.05136833712,631,2.857905019E-5,
630,0.01819127612,,,630,-2.158836105E-5,630,0.0001069481004,,,630,0.05144765228,630,0.05137803778,630,0.000110676614,
629,0.01817275956,,,629,-5.177190587E-7,629,6.371003838E-5,,,629,0.05146609992,629,0.05132390559,629,0.0001730044896,
628,0.01825892739,,,628,-6.745359133E-5,628,0.0001235972013,,,628,0.05133235455,628,0.05139333382,628,0.0001123596376,
627,0.01835178025,,,627,-3.111382102E-5,627,0.0001109873265,,,627,0.05147513375,627,0.0514030084,627,6.10951829E-5,
626,0.01843487844,,,626,1.366800643E-5,626,7.55418223E-5,,,626,0.05145703629,626,0.05154890195,626,7.859690959E-5,
625,0.01851953007,,,625,0.0001287500054,625,5.775543468E-5,,,625,0.05148011819,625,0.05147857219,625,3.14008139E-5,
624,0.01859733649,,,624,0.0001944471442,624,0.0002256548323,,,624,0.05168988556,624,0.05168318003,624,0.0001345502242,
623,0.01867210306,,,623,0.0001926084224,623,0.0001652356732,,,623,0.05179014057,623,0.05176535249,623,-4.555906344E-6,
622,0.01890142821,,,622,5.67975294E-5,622,0.0001021062635,,,622,0.05175730214,622,0.05171802267,622,0.000152417444,
621,0.01902738772,,,621,2.567963929E-5,621,3.370483682E-5,,,621,0.05193724111,621,0.05188193172,621,0.0001925307297,
620,0.01905024238,,,620,0.0003861573059,620,0.0002398997458,,,620,0.05192551389,620,0.05187297612,620,0.0001885425445,
619,0.01918849908,,,619,0.0002838288201,619,0.0002984383027,,,619,0.05218404159,619,0.05217078701,619,0.0001768112706,
618,0.01922405139,,,618,0.0002360665239,618,0.0004449228873,,,618,0.05226572603,618,0.05219927803,618,0.0001948873978,
617,0.0194078926,,,617,0.0002580562141,617,0.0002869371965,,,617,0.05245177448,617,0.05230963975,617,0.0003086703946,
616,0.01961569674,,,616,0.0001352493564,616,0.0002080176782,,,616,0.05249906704,616,0.0523570329,616,0.0002985937172,
615,0.01984907128,,,615,-9.581928316E-5,615,3.489568553E-5,,,615,0.05249334127,615,0.0525399372,615,7.59819668E-5,
614,0.01993120834,,,614,-6.797123206E-5,614,0.0001025464298,,,614,0.05261195824,614,0.05262738466,614,9.239684732E-5,
613,0.02004873566,,,613,2.800952097E-5,613,0.0001187810631,,,613,0.052773837,613,0.05270760506,613,0.0001370101527,
612,0.02012418769,,,612,-1.268393953E-5,612,8.222161705E-5,,,612,0.05285346881,612,0.05281338468,612,2.197774302E-5,
611,0.02017635666,,,611,0.0001257204567,611,0.000232544131,,,611,0.05292118341,611,0.05291308463,611,0.0001502422529,
610,0.02039706334,,,610,4.072053707E-5,610,-4.576397987E-5,,,610,0.05304146558,610,0.05305477604,610,0.0001159846215,
609,0.02047743276,,,609,-8.370715659E-5,609,0.0001299670112,,,609,0.05307516083,609,0.05313595012,609,6.997540913E-5,
608,0.0205288846,,,608,-3.918958828E-5,608,0.000173729597,,,608,0.05318714678,608,0.05319712684,608,0.0001460990898,
607,0.02061877772,,,607,8.677843289E-5,607,7.655155787E-5,,,607,0.05330115557,607,0.05322626978,607,0.0002277008898,
606,0.02069997601,,,606,2.073515498E-5,606,0.0001313652756,,,606,0.05346554518,606,0.05346082896,606,0.0001204382206,
605,0.0207435526,,,605,0.0001301223674,605,0.0001844766957,,,605,0.05344686657,605,0.05343038216,605,0.0002097269753,
604,0.02083498426,,,604,4.367182555E-5,604,0.0002324664238,,,604,0.05356357619,604,0.05364235491,604,3.934845518E-5,
603,0.02098223381,,,603,-9.742385737E-5,603,0.0001491546718,,,603,0.05364598706,603,0.05357804149,603,0.0001668153272,
602,0.02105819993,,,602,-2.764533383E-5,602,0.0001692236547,,,602,0.05364446342,602,0.05364446342,602,0.0002333211305,
601,0.0209747348,,,601,0.0001561722311,601,0.0003874527465,,,601,0.05379746854,601,0.05373307317,601,0.0002691939299,
600,0.02102151886,,,600,0.0001695602987,600,0.0004056153994,,,600,0.05393604934,600,0.05387081206,600,0.0001244775776,
599,0.02116399445,,,599,-4.053553494E-5,599,0.0001308732899,,,599,0.05380385742,599,0.05369994417,599,0.0002502340649,
598,0.0212062858,,,598,4.167840962E-5,598,0.0001816280419,,,598,0.05377010629,598,0.05387222022,598,0.0001393924176,
597,0.02112037316,,,597,0.0002216663415,597,0.0003218818456,,,597,0.05396143347,597,0.05396483094,597,4.276572508E-5,
596,0.02125622146,,,596,0.0002140002471,596,0.0003108981764,,,596,0.0540791899,596,0.05408431962,596,4.856479063E-5,
595,0.02137655579,,,595,0.0001469277195,595,0.000115052484,,,595,0.05416791514,595,0.05391650274,595,0.0002960810671,
594,0.02143714391,,,594,6.645436224E-5,594,8.240285388E-5,,,594,0.05421709642,594,0.05407423526,594,0.0001528058638,
593,0.02154496126,,,593,-7.319934957E-5,593,0.0001649249316,,,593,0.05418070406,593,0.05411915109,593,0.0002077327954,
592,0.02167120017,,,592,-5.11994258E-5,592,7.018253382E-5,,,592,0.05431811512,592,0.05438453332,592,-2.38662069E-5,
591,0.02181464992,,,591,-9.267077985E-6,591,0.0001581920806,,,591,0.05437890068,591,0.05437658355,591,0.0001766558853,
590,0.02182774246,,,590,0.0001189623144,590,0.0001996266947,,,590,0.05456541851,590,0.05449301377,590,0.0001888792031,
589,0.02200367488,,,589,-2.381443846E-5,589,7.525702677E-5,,,589,0.05469802022,589,0.05464910716,589,0.0001651320927,
588,0.02215739526,,,588,-1.273570979E-5,588,6.632491568E-5,,,588,0.05474998802,588,0.05481847003,588,4.737158179E-6,
587,0.02228353918,,,587,-9.038439748E-5,587,9.733233128E-6,,,587,0.05477107316,587,0.05489847809,587,5.951591811E-5,
586,0.02228857949,,,586,0.0002433185873,586,0.0002903823042,,,586,0.05512830243,586,0.05522697419,586,-2.272728489E-5,
585,0.02256014943,,,585,0.0001160105166,585,9.915457485E-5,,,585,0.05523973331,585,0.0552601926,585,8.253230772E-5,
584,0.02263006382,,,584,0.0002649719245,584,0.0003718816733,,,584,0.05551944673,584,0.05555007234,584,0.0001941622759,
583,0.02308258228,,,583,-4.871466081E-5,583,2.342743392E-5,,,583,0.05564174801,583,0.05570254102,583,6.324402784E-5,
582,0.02322144806,,,582,6.112107076E-5,582,0.0001299411088,,,582,0.05599848554,582,0.05598812178,582,5.024757047E-5,
581,0.02344572917,,,581,4.864245784E-5,581,4.861656998E-5,,,581,0.05607037619,581,0.05620332062,581,7.458387699E-5,
580,0.02353844233,,,580,0.0001899409981,580,0.0002910816984,,,580,0.05640836805,580,0.05647103861,580,7.455798914E-5,
579,0.02385944314,,,579,0.0001524692343,579,6.559999747E-5,,,579,0.05644892901,579,0.05641747639,579,0.0003311818873,
578,0.02403363027,,,578,0.0002338909253,578,0.0002068004542,,,578,0.05672842264,578,0.05661392584,578,0.0002045214205,
577,0.02426758409,,,577,0.000132867106,577,0.000170388972,,,577,0.05696815997,577,0.05692689866,577,0.0001275071118,
576,0.0243396908,,,576,0.0001428622636,576,0.0002324923262,,,576,0.05705148727,576,0.05712502822,576,5.436087577E-6,
575,0.02464158647,,,575,0.0001648731413,575,0.0001979174267,,,575,0.05751702935,575,0.05743485317,575,4.74256849E-5,
574,0.02488477714,,,574,4.387893205E-5,574,0.0002002482361,,,574,0.05748927966,574,0.05747323483,574,2.979577221E-5,
573,0.02496951632,,,573,0.0002892943739,573,0.0001293455571,,,573,0.05766097084,573,0.05762534961,573,0.0001336957212,
572,0.02540751919,,,572,3.015820039E-5,572,0.0001717355772,,,572,0.05807952583,572,0.05801913515,572,7.77942987E-5,
571,0.02549958043,,,571,-1.190752869E-6,571,0.0001654428488,,,571,0.05824833736,571,0.05804608762,571,0.0002701005142,
570,0.02558834106,,,570,7.719881978E-5,570,0.0001206971574,,,570,0.05820222199,570,0.0582030192,570,7.033786824E-5,
569,0.02566064149,,,569,0.0001699487475,569,0.0001770184317,,,569,0.05835145339,569,0.05842965469,569,5.816966586E-5,
568,0.02581143007,,,568,-2.588589041E-6,568,0.0001582179684,,,568,0.0585626103,568,0.05861149356,568,0.0001010187989,
567,0.02593067102,,,567,0.0003511815739,567,0.0002830517478,,,567,0.05886866525,567,0.05895389989,567,7.660333358E-5,
566,0.02627330087,,,566,5.625385165E-5,566,0.0001505529945,,,566,0.05913708359,566,0.05896323919,566,0.000205868113,
565,0.02631537803,,,565,6.184598169E-5,565,0.0002140261495,,,565,0.05918306112,565,0.05898704752,565,0.0001736260019,
564,0.02655871026,,,564,-8.060142864E-5,564,8.043515118E-5,,,564,0.05922150984,564,0.05909018964,564,0.0002488872269,
563,0.02659748495,,,563,-4.809346501E-5,563,0.0001278437267,,,563,0.05920860544,563,0.05931687355,563,0.0002404177503,
562,0.02657139674,,,562,0.0002172375971,562,0.0002800729126,,,562,0.05924198031,562,0.05935188755,562,0.0001459696214,
561,0.02687988617,,,561,-5.099236296E-5,561,0.0001234936208,,,561,0.05946328118,561,0.05960436165,561,0.0001303813042,
560,0.02687396482,,,560,-2.971607501E-5,560,0.0001402987255,,,560,0.05954530463,560,0.05958194658,560,0.000128206244,
559,0.02694146708,,,559,-2.847447149E-6,559,0.0002181181626,,,559,0.05954322591,559,0.05963207036,559,0.000232544131,
558,0.02705740929,,,558,4.550991798E-5,558,-0.0001093285682,,,558,0.0597098209,558,0.05972760916,558,0.0002901232801,
557,0.02705539763,,,557,0.0001473161392,557,0.0001920386858,,,557,0.05987181142,557,0.05981322005,557,0.0001323492324,
556,0.02721235156,,,556,0.0001047990445,556,0.0002381644299,,,556,0.05996859446,556,0.05989168957,556,0.0003210269788,
555,0.02735265344,,,555,-1.397840037E-6,555,0.0001775363635,,,555,0.06015544757,555,0.06008311734,555,0.0001434060541,
554,0.02744198404,,,554,1.242544295E-5,554,0.0001263936865,,,554,0.06026915461,554,0.060074348,554,0.0002592476667,
553,0.02747943252,,,553,0.0001044624441,553,8.315368905E-5,,,553,0.06026061997,553,0.06032864004,553,7.776841085E-5,
552,0.02770669758,,,552,-0.0002002076944,552,4.74256849E-5,,,552,0.06029750034,552,0.06043712795,552,3.805404049E-5,
551,0.02774248458,,,551,6.367994956E-6,551,-5.436019364E-6,,,551,0.06053725258,551,0.06043956801,551,0.0002135081741,
550,0.02792218328,,,550,-0.0001478872437,550,2.148540716E-6,,,550,0.06064073369,550,0.06037304923,550,0.0003104578063,
549,0.02783275209,,,549,0.000109951623,549,0.0002419717639,,,549,0.06064501777,549,0.06070869043,549,-1.894811612E-5,
548,0.02804818936,,,548,-0.0001500609214,548,1.70074145E-5,,,548,0.06067907065,548,0.06059090793,548,0.0002672253759,
547,0.02806163765,,,547,7.046732208E-5,547,3.062418182E-5,,,547,0.06084258482,547,0.06081429496,547,0.0001492064621,
546,0.02821721509,,,546,-6.973119889E-5,546,2.570552715E-5,,,546,0.06088490412,546,0.0607784763,546,0.0002021905821,
545,0.02822295949,,,545,3.538756209E-5,545,4.263628216E-5,,,545,0.06094327942,545,0.06091888621,545,0.0002334247256,
544,0.02831432223,,,544,-8.542285286E-6,544,0.0001189623144,,,544,0.06093273312,544,0.06107947975,544,-7.910031854E-5,
543,0.0284160953,,,543,0.0001158033774,543,0.0002736750175,,,543,0.06109407917,543,0.06114577875,543,9.19825834E-5,
542,0.02846368775,,,542,0.0002259397152,542,0.0001354047272,,,542,0.06125843525,542,0.06126705185,542,3.675962944E-5,
541,0.02853663452,,,541,9.309592133E-5,541,0.0001060936556,,,541,0.06134968624,541,0.06132893637,541,-5.554773452E-5,
540,0.02870194986,,,540,-5.425359996E-5,540,1.869007065E-5,,,540,0.06137789041,540,0.06137049571,540,0.0001038928167,
539,0.02874456719,,,539,-0.0001287894847,539,4.68043545E-5,,,539,0.06145455316,539,0.06138501689,539,0.0002007920993,
538,0.02892288193,,,538,-2.38662069E-5,538,-4.219207767E-5,,,538,0.0615744479,538,0.06142008305,538,0.0001923494419,
537,0.02884699404,,,537,0.0001533496543,537,9.951706306E-5,,,537,0.06155741587,537,0.06156039983,537,0.0001288535714,
536,0.02895044163,,,536,-3.245978951E-5,536,6.324402784E-5,,,536,0.06164855137,536,0.06173684075,536,8.607937343E-5,
535,0.0291534774,,,535,-0.000217335968,535,5.710820187E-5,,,535,0.0618054159,535,0.06161627173,535,0.0001959492074,
534,0.02917363122,,,534,-2.831832535E-5,534,-4.395215001E-5,,,534,0.06173907593,534,0.06191006675,534,4.61830241E-5,
533,0.02919813432,,,533,-6.678066711E-5,533,9.498600411E-5,,,533,0.0619218275,533,0.06178965792,533,0.0001473679295,
532,0.0292052757,,,532,0.0001438203617,532,0.0001894230518,,,532,0.06192502379,532,0.06196284667,532,0.0001126703501,
531,0.02941267192,,,531,-5.161355512E-5,531,1.392687409E-5,,,531,0.06213532761,531,0.06213410199,531,-1.268393953E-5,
530,0.02936575003,,,530,7.9736099E-5,530,0.0002307052491,,,530,0.06219679862,530,0.06215967238,530,0.0002169009094,
529,0.02957452275,,,529,-0.0001565301209,529,6.425372703E-5,,,529,0.06218807772,529,0.06234558672,529,-2.681703518E-5,
528,0.02952930331,,,528,0.0001382530754,528,0.0001822495688,,,528,0.06238694489,528,0.06229287758,528,0.0001824049396,
527,0.02965938114,,,527,-5.647951184E-5,527,0.0002453129273,,,527,0.06251400709,527,0.06234929338,527,0.0002100636484,
526,0.02980918065,,,526,5.255169526E-5,526,-5.725598749E-5,,,526,0.06242732331,526,0.06266143173,526,-8.520824485E-5,
525,0.02982559428,,,525,-2.536817419E-6,525,0.0002378277277,,,525,0.06265617162,525,0.06264086068,525,0.0001123337424,
524,0.02986846119,,,524,5.143846647E-5,524,0.0001762415486,,,524,0.06268655509,524,0.06270563602,524,6.873268285E-5,
523,0.02992636338,,,523,0.00013941832,523,0.0002728979453,,,523,0.06273162365,523,0.06274296343,523,0.0001751279924,
522,0.03001941554,,,522,4.571702448E-5,522,0.0001784686465,,,522,0.06283787638,522,0.06290611625,522,7.479100168E-5,
521,0.03006507643,,,521,2.684457831E-5,521,0.0001800224418,,,521,0.06299427152,521,0.06290435046,521,0.0001750502997,
520,0.03017022833,,,520,0.0001273258531,520,0.0001948873978,,,520,0.06309445202,520,0.06306828558,520,0.0001194542856,
519,0.03035501577,,,519,2.982166006E-5,519,0.0001078284404,,,519,0.06316171587,519,0.06316962093,519,0.0001494136231,
518,0.0304484386,,,518,-6.890298391E-5,518,6.272623432E-5,,,518,0.06313937902,518,0.06311797351,518,0.0002269498073,
517,0.03054460324,,,517,1.183004861E-5,517,6.870679499E-5,,,517,0.06334871799,517,0.06344690919,517,-4.198501119E-5,
516,0.03060067818,,,516,-6.181128992E-5,516,1.793934644E-5,,,516,0.06336459517,516,0.06355366111,516,6.704517546E-6,
515,0.03059709445,,,515,0.0001075954133,515,0.0001956125343,,,515,0.06353772432,515,0.06361629814,515,6.712750474E-5,
514,0.03076358512,,,514,0.0001354565029,514,6.334758655E-5,,,514,0.06367869675,514,0.06349523365,514,0.0002425415732,
513,0.03094784729,,,513,-6.27948175E-5,513,-1.604900353E-5,,,513,0.06374035776,513,0.06363805383,513,0.0001687575277,
512,0.03109422699,,,512,-0.0002090565249,512,-9.364533616E-5,,,512,0.06377198547,512,0.06371640414,512,0.0002546890464,
511,0.03115824424,,,511,-0.0001071546867,511,-2.381443846E-5,,,511,0.06393774599,511,0.06394611299,511,6.956116704E-5,
510,0.03118825331,,,510,-4.814763543E-6,510,4.506980986E-5,,,510,0.06407050788,510,0.06392131001,510,0.0003191618016,
509,0.03134781867,,,509,-0.0002235971915,509,-0.0001567371364,,,509,0.06408271939,509,0.06413646042,509,0.0001787535002,
508,0.03128577769,,,508,9.149064863E-5,508,2.883792695E-5,,,508,0.06414140761,508,0.06413988024,508,0.0001075436303,
507,0.03142879531,,,507,2.200312792E-6,507,5.356137262E-5,,,507,0.06430668384,507,0.0642523244,507,0.0002235051797,
506,0.031509839,,,506,-1.682555376E-5,506,0.0001280249853,,,506,0.06432727724,506,0.06445214152,506,2.244371535E-5,
505,0.0315130949,,,505,1.928547499E-5,505,0.0001283616002,,,505,0.06450898945,505,0.06444811821,505,0.0001035821115,
504,0.03159179166,,,504,9.985365614E-5,504,0.000187247686,,,504,0.06454751641,504,0.06456388533,504,0.0001068186393,
503,0.03183509037,,,503,-5.880893877E-5,503,3.546392236E-6,,,503,0.06466190517,503,0.06471706182,503,0.00012618654,
502,0.03199620172,,,502,4.31022745E-5,502,-0.0001033762528,,,502,0.0647508055,502,0.06477241218,502,0.0001124890987,
501,0.03187801689,,,501,5.461973615E-6,501,7.468744298E-5,,,501,0.06488859653,501,0.06491910666,501,-2.78524094E-5,
500,0.03201526403,,,500,0.0001180301697,500,0.0002404695551,,,500,0.06496347487,500,0.06490242481,500,0.0002693752467,
499,0.03219328076,,,499,-3.763656787E-5,499,0.0001180560575,,,499,0.06500712782,499,0.06514731795,499,0.0001278178388,
498,0.03230224177,,,498,0.0001299152209,498,2.298734762E-5,,,498,0.06519830227,498,0.06527934223,498,7.991733582E-5,
497,0.03224806488,,,497,0.0001169944444,497,0.0002336578182,,,497,0.06527034193,497,0.06532826275,497,0.0001337992871,
496,0.03247212246,,,496,-0.0001199907711,496,-3.158076652E-6,,,496,0.06539812684,496,0.06535964459,496,0.0002237382723,
495,0.0325113982,,,495,-2.464274257E-5,495,7.846745575E-5,,,495,0.06547601521,495,0.06551999599,495,0.000187480764,
494,0.03260352835,,,494,-4.193506811E-6,494,0.0001413345017,,,494,0.06567389518,494,0.06558534503,494,0.0001088382487,
493,0.03269442171,,,493,-1.553155357E-6,493,0.0001824049396,,,493,0.06577824801,493,0.06561943144,493,0.0002646092908,
492,0.03286470473,,,492,-1.491006151E-5,492,4.475914466E-5,,,492,0.06587424874,492,0.06595830619,492,-0.0001582379773,
491,0.03281537443,,,491,2.718035148E-6,491,0.0001155444479,,,491,0.06582324952,491,0.06590497494,491,0.0001909250859,
490,0.03303877264,,,490,-8.267191151E-5,490,0.0001208784088,,,490,0.06597762555,490,0.06597301364,490,0.0001256686664,
489,0.03310173377,,,489,4.71150197E-5,489,2.707756721E-5,,,489,0.06614618748,489,0.06613600254,489,5.099835107E-5,
488,0.0332871303,,,488,-0.0001587555162,488,8.464794519E-6,,,488,0.06621088088,488,0.06615016609,488,0.0001421631168,
487,0.03326298296,,,487,9.741982649E-5,487,0.0001916761103,,,487,0.06621610373,487,0.06616514921,487,0.0002022423869,
486,0.03344232589,,,486,5.306656021E-6,486,-1.113082362E-5,,,486,0.0663459748,486,0.06651094556,486,-2.666172986E-5,
485,0.03350325301,,,485,-6.569361722E-5,485,-3.354691944E-5,,,485,0.06644116342,485,0.06645621359,485,0.000183596203,
484,0.03359816596,,,484,-9.809673793E-5,484,0.0001245293533,,,484,0.06670111418,484,0.06644575298,484,0.0001024428566,
483,0.03368971497,,,483,0.0001143792688,483,-4.239914779E-5,,,483,0.06666836888,483,0.06673748791,483,9.068801592E-5,
482,0.03372913226,,,482,0.0002197497961,482,0.0001881022908,,,482,0.06681193411,482,0.06669275463,482,0.0003521660401,
481,0.0339467302,,,481,-3.463404573E-5,481,-0.0001380020549,,,481,0.06687304378,481,0.06705784798,481,1.035439936E-6,
480,0.03391711786,,,480,9.796355153E-5,480,0.000219646201,,,480,0.06698791683,480,0.06698976457,480,0.0002135599643,
479,0.03399417549,,,479,3.90879859E-6,479,-1.418527881E-5,,,479,0.06709989905,479,0.06697604805,479,0.0001808770321,
478,0.03402334824,,,478,0.0001707515185,478,0.0001727455383,,,478,0.06718920916,478,0.06711404026,478,0.0001499315258,
477,0.03420630842,,,477,9.972419502E-5,477,-7.092697615E-6,,,477,0.06706403941,477,0.06747011095,477,-8.375891775E-5,
476,0.03443190828,,,476,-6.165599916E-5,476,1.441872337E-5,,,476,0.06755535305,476,0.06742717326,476,0.0001254615199,
475,0.03435339779,,,475,0.0002289958647,475,0.0002705408551,,,475,0.06768263131,475,0.06754053384,475,0.000265256851,
474,0.03445662558,,,474,0.000161118267,474,0.0002982310834,,,474,0.06781330705,474,0.06756787747,474,0.0001689905912,
473,0.0348427929,,,473,-0.0001137798099,473,7.313401875E-5,,,473,0.06776571274,473,0.06788031012,473,0.0001152337281,
472,0.03468908742,,,472,0.0002203713811,472,0.000284890848,,,472,0.06807269156,472,0.06790146977,472,0.0002179109724,
471,0.03488837183,,,471,2.606795169E-5,471,1.038039773E-5,,,471,0.06798295677,471,0.0679558292,471,0.0002877142688,
470,0.03520367295,,,470,-0.0001195767109,470,-2.567812226E-5,,,470,0.06821868569,470,0.06798137724,470,0.0003538499877,
469,0.03513490036,,,469,2.371219489E-5,469,0.0001245811436,,,469,0.06817746907,469,0.06832807511,469,1.589427484E-5,
468,0.03531527147,,,468,-0.0001522345847,468,-8.991854702E-5,,,468,0.06836155802,468,0.06836852431,468,0.000180436793,
467,0.03520858288,,,467,0.0001067927515,467,0.0002992413065,,,467,0.06847864389,467,0.06849007308,467,0.0002365845285,
466,0.03535792604,,,466,0.0001319349394,466,0.0001986425777,,,466,0.06861235201,466,0.06863924116,466,0.0001500609942,
465,0.03546315804,,,465,8.253230772E-5,465,7.927006664E-5,,,465,0.06864382327,465,0.06853847206,465,0.0002892166667,
464,0.03567123041,,,464,-6.025835319E-5,464,0.0001438203617,,,464,0.06877312064,464,0.06883723289,464,0.0001205935841,
463,0.03574306518,,,463,2.886381299E-5,463,-4.369331509E-5,,,463,0.06877857447,463,0.0689920783,463,-0.0001199390172,
462,0.03586613387,,,462,-0.0001212329516,462,8.957468526E-5,,,462,0.06915392727,462,0.06883899122,462,0.0001498279453,
461,0.03582030907,,,461,3.207389818E-5,461,0.0001932040614,,,461,0.06903149188,461,0.06900639832,461,0.0002161498414,
460,0.03604807332,,,460,-4.172617628E-5,460,-2.759356539E-5,,,460,0.06917204708,460,0.06925349683,460,3.761393964E-5,
459,0.03601657227,,,459,7.927006664E-5,459,0.0001702595036,,,459,0.06930666417,459,0.06930483878,459,0.0002080176782,
458,0.03614163026,,,458,7.577484212E-5,458,0.0001182632041,,,458,0.06933119893,458,0.06929892302,458,0.0001964930561,
457,0.03622642905,,,457,1.560951932E-5,457,0.0001018732291,,,457,0.06965363026,457,0.0695162937,457,2.904502799E-5,
456,0.03638346866,,,456,2.407461761E-5,456,-2.826655691E-5,,,456,0.06951443851,456,0.06957447529,456,0.0001474974124,
455,0.03629720211,,,455,9.071390377E-5,455,0.0001527799759,,,455,0.06977690756,455,0.06971806288,455,0.000189966886,
454,0.0367176868,,,454,5.185269038E-5,454,-0.0002236489381,,,454,0.06958835572,454,0.06963633746,454,0.0003148356918,
453,0.03670047596,,,453,3.313530397E-5,453,0.0001760084706,,,453,0.07021637261,453,0.07011624426,453,0.0001558096992,
452,0.03681521863,,,452,0.0001059382994,452,0.0001798411686,,,452,0.07017681748,452,0.07021518797,452,0.0001381494949,
451,0.03691085801,,,451,0.000137683397,451,0.0001566901483,,,451,0.07033323497,451,0.07028265297,451,7.877814642E-5,
450,0.03712777793,,,450,3.026175182E-5,450,3.362717325E-5,,,450,0.07044099271,450,0.07037119567,450,0.000173496519,
449,0.03706281632,,,449,2.270258847E-5,449,0.0001631899213,,,449,0.07052323222,449,0.07049068063,449,-3.618707706E-5,
448,0.03719714284,,,448,4.23256206E-5,448,0.0001725642651,,,448,0.07047278434,448,0.07071526349,448,-6.817829126E-5,
447,0.03719646856,,,447,0.0002675621072,447,0.0001524692343,,,447,0.07069540024,447,0.07067795098,447,5.338014671E-5,
446,0.0374878794,,,446,-0.0001616536756,446,4.903079025E-5,,,446,0.07088644058,446,0.07068452984,446,0.000400070654,
445,0.03756596893,,,445,-9.064320329E-5,445,1.869007065E-5,,,445,0.07100125402,445,0.07095053792,445,0.0001356377616,
444,0.03765725717,,,444,-4.876642561E-5,444,6.893980753E-5,,,444,0.07095614076,444,0.07097943127,444,-2.277959311E-6,
443,0.0376535058,,,443,4.517336492E-5,443,9.577819355E-7,,,443,0.07123503834,443,0.07098857313,443,0.0002668368688,
442,0.03786966205,,,442,-2.811125159E-5,442,-0.0001057571862,,,442,0.07122265548,442,0.07118556648,442,0.0001717355772,
441,0.0379851684,,,441,-0.0001014093868,441,-4.540161535E-5,,,441,0.07137054205,441,0.0713340193,441,-7.609807653E-5,
440,0.03799466044,,,440,-4.855936277E-5,440,0.000139651369,,,440,0.07133374363,440,0.07132852823,440,9.664307436E-5,
439,0.03805806488,,,439,-9.675096953E-5,439,-1.915519351E-5,,,439,0.07143858075,439,0.07152448595,439,1.309849722E-5,
438,0.0380618237,,,438,4.129008084E-5,438,2.860493623E-5,,,438,0.07155030966,438,0.07141721994,438,0.0001621799893,
437,0.03834097832,,,437,-1.553155357E-6,437,-0.0001667771576,,,437,0.07177314907,437,0.07168984413,437,2.531721475E-5,
436,0.03818518296,,,436,0.0002190246305,436,0.000208198966,,,436,0.07178447396,436,0.07177112997,436,8.022802649E-5,
435,0.0382919237,,,435,0.0003018057905,435,0.000170518455,,,435,0.07217569649,435,0.07175912708,435,0.0003732029872,
434,0.03861230984,,,434,-4.353801705E-5,434,0.0001143274858,,,434,0.07219248265,434,0.07200340182,434,0.0002877660736,
433,0.03892095014,,,433,-0.0001890817221,433,-0.0001199390172,,,433,0.07227691263,433,0.07221763581,433,2.785419565E-5,
432,0.03880324215,,,432,4.214440196E-5,432,9.809301264E-5,,,432,0.07248691469,432,0.07232733071,432,0.0002556991822,
431,0.03897494823,,,431,-8.412125317E-5,431,2.44111543E-5,,,431,0.07261353731,431,0.07258939743,431,7.19430609E-5,
430,0.03894785047,,,430,0.0001041258438,430,0.0002045473084,,,430,0.07270359248,430,0.07252753526,430,0.0001069222126,
429,0.03903707862,,,429,0.0001347055804,429,0.0001442605717,,,429,0.07284702361,429,0.07263060659,429,0.0001473938319,
428,0.03928330913,,,428,-0.0001813192357,428,0.0001533237664,,,428,0.0729001388,428,0.07275255769,428,0.0002960551647,
427,0.03921122849,,,427,0.0001312875829,427,5.708231038E-5,,,427,0.07296784222,427,0.07283361256,427,0.0003733584599,
426,0.03943590075,,,426,4.918612467E-5,426,9.496011626E-5,,,426,0.07303861529,426,0.07294949889,426,0.0003297052754,
425,0.03982847929,,,425,-2.961253813E-5,425,6.98459553E-5,,,425,0.07352747768,425,0.07346395403,425,0.0002316635364,
424,0.03994556144,,,424,1.941451956E-6,424,-0.0001007882674,,,424,0.07360554487,424,0.0736213401,424,0.0001912358566,
423,0.04007496312,,,423,-8.163667371E-5,423,-0.0002261844493,,,423,0.07364587486,423,0.07368114591,423,0.0001987202704,
422,0.03999565169,,,422,-0.0001081898736,422,0.0002995262621,,,422,0.07388442755,422,0.07373885065,422,0.0003589018888,
421,0.04017018899,,,421,6.873268285E-5,421,9.809301264E-5,,,421,0.07397115976,421,0.0738061294,421,0.0004685038875,
420,0.04040149227,,,420,-5.44606628E-5,420,-0.0001470074203,,,420,0.07402472198,420,0.07387495041,420,0.0006074506091,
419,0.04049292579,,,419,-7.765721421E-6,419,-1.418527881E-5,,,419,0.07408305258,419,0.07396569848,419,0.0006612424622,
418,0.04096763954,,,418,-0.0001770756935,418,-0.0002359641512,,,418,0.07459685206,418,0.07457592338,418,0.000804244657,
417,0.04103717208,,,417,-5.492654964E-5,417,-4.369331509E-5,,,417,0.07487182319,417,0.07460933179,417,0.0009396669338,
416,0.04107100144,,,416,0.0001087864657,416,5.51923913E-5,,,416,0.07490541041,416,0.07465264201,416,0.001327699632,
415,0.04105714336,,,415,-1.972465907E-5,415,0.0003242133243,,,415,0.07510187477,415,0.07509609312,415,0.001335437293,
414,0.04116146266,,,414,0.0001847097737,414,0.0004601856053,,,414,0.07510818541,414,0.07499910891,414,0.001816224423,
413,0.04172529653,,,413,-1.760210216E-5,413,-0.0002434669295,,,413,0.07561954111,413,0.07539213449,413,0.002047948772,
412,0.04189157858,,,412,-3.095851571E-5,412,-7.666747115E-5,,,412,0.07573601604,412,0.07563472539,412,0.002719300101,
411,0.04195840284,,,411,5.824733307E-5,411,8.343849186E-5,,,411,0.0759093985,411,0.07574590296,411,0.003511142218,
410,0.04197485372,,,410,0.000273830432,410,0.0002642725885,,,410,0.0760981515,410,0.07599748671,410,0.003948498052,
409,0.04263519868,,,409,-0.0003361286072,409,-0.0004569574958,,,409,0.07630956918,409,0.07623193413,409,0.005559183657,
408,0.04267809168,,,408,9.95429582E-5,408,-9.24548367E-5,,,408,0.07650923729,408,0.07660183311,408,0.006670394912,
407,0.04252807051,,,407,0.0001753610559,407,0.0002922473359,,,407,0.07663722336,407,0.07671564072,407,0.008329750039,
406,0.04288373515,,,406,0.0001452963625,406,0.0002395112388,,,406,0.0768917352,406,0.07664565742,406,0.01056736428,
405,0.04332220182,,,405,-4.358978185E-5,405,7.963254029E-5,,,405,0.07737020403,405,0.07736485451,405,0.01275842357,
404,0.04357142001,,,404,0.0001272740628,404,-6.408892659E-5,,,404,0.07756114006,404,0.07742932439,404,0.01597579382,
403,0.04361532256,,,403,2.847457381E-7,403,7.756128616E-5,,,403,0.07758657634,403,0.07778928429,403,0.01908451132,
402,0.04388194904,,,402,-0.0002120578429,402,3.771749471E-5,,,402,0.07812273502,402,0.07816664875,402,0.0232664533,
401,0.04426285997,,,401,-5.384248198E-6,401,-0.0001139350861,,,401,0.0784573108,401,0.07810067385,401,0.0282803122,
400,0.04453229532,,,400,-0.0001897027105,400,-0.0001826647494,,,400,0.07838850468,400,0.0782469511,400,0.03382672369,
399,0.04450177774,,,399,-0.0001907894475,399,0.000137061943,,,399,0.07890075445,399,0.0784015879,399,0.04062147066,
398,0.04482252896,,,398,0.0001314688416,398,5.537361722E-5,,,398,0.07913646847,398,0.07897607237,398,0.04729808867,
397,0.0449475944,,,397,0.0002083543513,397,0.0001355859858,,,397,0.07928812504,397,0.0792657584,397,0.05509841442,
396,0.04498807713,,,396,0.0001988756558,396,0.0002399256482,,,396,0.07944204658,396,0.07932811975,396,0.06444745511,
395,0.04558346793,,,395,-5.870540917E-5,395,-1.915519351E-5,,,395,0.07959894836,395,0.07986661792,395,0.07405434549,
394,0.045677118,,,394,0.0001844508079,394,-6.124188076E-5,,,394,0.0797701776,394,0.08003533632,394,0.08462289721,
393,0.04599073902,,,393,-3.981079499E-5,393,-8.153314411E-5,,,393,0.08001803607,393,0.07980421185,393,0.09645239264,
392,0.04579466581,,,392,0.000139651369,392,0.0004072995507,,,392,0.08057468385,392,0.07987046987,392,0.1091658995,
391,0.04622758552,,,391,0.0001474974124,391,0.0003288503794,,,391,0.08090020716,391,0.08054508269,391,0.121298559,
390,0.04656431079,,,390,-5.125119424E-5,390,-0.0001451442513,,,390,0.08077782393,390,0.08075680584,390,0.1347499341,
389,0.04665719345,,,389,6.583301001E-5,389,-2.070828123E-5,,,389,0.08073192835,389,0.08104805648,389,0.1480679512,
388,0.04682747647,,,388,0.0001868592226,388,-0.0001078793139,,,388,0.08118537813,388,0.08084379882,388,0.162846148,
387,0.04713835195,,,387,0.000260413246,387,0.0001249177585,,,387,0.08172690123,387,0.0814602077,387,0.1769736409,
386,0.04735316336,,,386,-0.0001822507475,386,-5.006057836E-5,,,386,0.08155814558,386,0.08138087392,386,0.1918264627,
385,0.0474011749,,,385,-0.0001905824465,385,-2.831832535E-5,,,385,0.08192767203,385,0.08156432956,385,0.2063721269,
384,0.04763549939,,,384,-3.799893966E-5,384,9.674664034E-5,,,384,0.08194968104,384,0.08194018155,384,0.2206297964,
383,0.04790775478,,,383,-0.0001074652464,383,3.719973029E-5,,,383,0.08291126788,383,0.08229880035,383,0.2352490276,
382,0.0482571274,,,382,-8.945269656E-5,382,-8.329306002E-5,,,382,0.08263335377,382,0.08233715594,382,0.250105381,
381,0.04809831083,,,381,0.0001751797827,381,0.0001368030062,,,381,0.08289203048,381,0.08240609616,381,0.2639982104,
380,0.0484344922,,,380,-0.0002984661842,380,0.000142447956,,,380,0.08308076859,380,0.08255774528,380,0.2777328193,
379,0.0486026369,,,379,-5.321828939E-5,379,1.6308466E-5,,,379,0.083146438,379,0.08279281855,379,0.2918678522,
378,0.04862695932,,,378,4.58723589E-5,378,5.228996997E-6,,,378,0.08351129293,378,0.08301632851,378,0.3055045903,
377,0.04919370264,,,377,-5.4408898E-5,377,0.0002094420925,,,377,0.08386034518,377,0.08349978179,377,0.3189174831,
376,0.04941156507,,,376,-2.950900125E-5,376,0.000183233642,,,376,0.08374930173,376,0.08368416876,376,0.3327668011,
375,0.04944230989,,,375,-0.000102548096,375,0.0003487463109,,,375,0.08425239474,375,0.08407734334,375,0.3459802568,
374,0.04936214164,,,374,4.47332568E-5,374,0.0002781820367,,,374,0.08463715017,374,0.08436866105,374,0.3588300347,
373,0.04959152266,,,373,0.0001225355663,373,0.0003722443944,,,373,0.08468348533,373,0.08441276848,373,0.3725530803,
372,0.05007318407,,,372,0.000183596203,372,-6.817829126E-5,,,372,0.08489182591,372,0.0845444575,372,0.3850170076,
371,0.050278496,,,371,0.0001705443574,371,-4.04320017E-5,,,371,0.08544512093,371,0.08490218222,371,0.3980034292,
370,0.05023499206,,,370,0.000241816364,370,4.317994171E-5,,,370,0.0857199803,370,0.08497020602,370,0.4107746184,
369,0.05089006573,,,369,-6.27948175E-5,369,0.0001144310518,,,369,0.0856917575,369,0.08550279588,369,0.421877265,
368,0.05080997944,,,368,0.0002270274999,368,0.0002954852825,,,368,0.08599173278,368,0.08568453789,368,0.4338133335,
367,0.05115662515,,,367,-0.000159687057,367,-9.105729259E-5,,,367,0.08606330305,367,0.08588578552,367,0.444565177,
366,0.05131866038,,,366,8.297245222E-5,366,7.688812912E-5,,,366,0.08629311621,366,0.08606296033,366,0.4544845521,
365,0.05151663348,,,365,0.0001849687396,365,-1.667024299E-5,,,365,0.08670522273,365,0.08610919118,365,0.4643988311,
364,0.05167096108,,,364,0.0003984901705,364,0.0002565021277,,,364,0.08685537428,364,0.08657900989,364,0.4723803401,
363,0.05191900954,,,363,0.000115104267,363,0.0001607039303,,,363,0.08741026372,363,0.08667564392,363,0.4795539677,
362,0.05203134194,,,362,5.889456952E-5,362,1.219246224E-5,,,362,0.08740743995,362,0.08711360395,362,0.4867975712,
361,0.05247143283,,,361,-0.0004478033807,361,4.34129397E-5,,,361,0.08740133047,361,0.08695747703,361,0.4923447669,
360,0.05251115933,,,360,-0.0001344826742,360,1.814644202E-5,,,360,0.0877417773,360,0.08736667037,360,0.4971095622,
359,0.0529095754,,,359,-0.0001315843256,359,-0.0003496821737,,,359,0.08834981918,359,0.08773955703,359,0.5008752346,
358,0.05276331306,,,358,0.0003406116739,358,0.0003993451828,,,358,0.08850375563,358,0.08797805756,358,0.5031124949,
357,0.05322548002,,,357,-5.1147661E-5,357,-4.804170021E-5,,,357,0.08903643489,357,0.08808026463,357,0.5059444308,
356,0.05324979499,,,356,1.703330054E-5,356,9.868852067E-5,,,356,0.08877871186,356,0.08830048889,356,0.5070503354,
355,0.05371921882,,,355,-0.0003168839321,355,-1.656670429E-5,,,355,0.08915269375,355,0.08840106428,355,0.5070078373,
354,0.0539460741,,,354,0.0004112379393,354,0.0004411655827,,,354,0.08974087983,354,0.08893613517,354,0.5065737367,
353,0.05410824344,,,353,0.0005246629589,353,0.0002871444158,,,353,0.0899150148,353,0.08958390355,353,0.5048676729,
352,0.05421727151,,,352,-1.506537228E-5,352,2.498067806E-5,,,352,0.0903519243,352,0.08937772363,352,0.5032530427,
351,0.05438459292,,,351,0.000117227486,351,5.827322457E-5,,,351,0.08978760988,351,0.08964302391,351,0.5006880164,
350,0.05438068882,,,350,0.0004209285544,350,-9.550872346E-5,,,350,0.09085583687,350,0.09001997113,350,0.4974990189,
349,0.06110152975,,,349,0.0004672859504,349,0.0003883595637,,,349,0.09729558975,349,0.09714709222,349,0.4928041101,
348,0.06071845442,,,348,0.0004927081754,348,0.0009476311971,,,348,0.09885492921,348,0.09700576216,348,0.4894325733,
347,0.06147909537,,,347,-0.0005114643136,347,-0.0003301276884,,,347,0.09785892069,347,0.09717428684,347,0.4835779667,
346,0.06102772802,,,346,0.0004120670783,346,0.001237661578,,,346,0.09908029437,346,0.09751499444,346,0.4788813889,
345,0.06147250533,,,345,0.0004222241114,345,0.0007799452287,,,345,0.09885655344,345,0.09774556756,345,0.4711572528,
344,0.0610512346,,,344,0.0006868056953,344,0.0008923253044,,,344,0.09847000986,344,0.09799867868,344,0.4648141861,
343,0.062063355,,,343,0.0004009515978,343,0.0002718100441,,,343,0.09835785627,343,0.09878622741,343,0.4548611641,
342,0.06226016209,,,342,3.365306111E-5,342,0.000390769128,,,342,0.09929263592,342,0.09835935384,342,0.4475123882,
341,0.06239704788,,,341,0.0001042812,341,0.0004399218014,,,341,0.09967239201,341,0.09836818278,341,0.4383169413,
340,0.06227172539,,,340,0.0002635991259,340,0.0002361183142,,,340,0.09992174059,340,0.09874914587,340,0.4286156297,
339,0.06241193041,,,339,-0.0008724121726,339,0.0003334874928,,,339,0.099419415,339,0.09821740538,339,0.4179160297,
338,0.06146588549,,,338,0.0008255369612,338,0.002135293558,,,338,0.1004413217,338,0.09924975783,338,0.4070863724,
337,0.0623411648,,,337,0.0004757598508,337,0.001388670295,,,337,0.1002496779,337,0.09798469394,337,0.3984401524,
336,0.06243255362,,,336,-2.329730933E-6,336,0.001041527255,,,336,0.1008974835,336,0.09996107221,336,0.3851458132,
335,0.06252378225,,,335,0.0006356808008,335,0.0002842432586,,,335,0.1005744711,335,0.1005568802,335,0.3741697669,
334,0.06273344904,,,334,0.0003979719768,334,0.0008089646581,,,334,0.1010847017,334,0.09925675392,334,0.3645964265,
333,0.06318294257,,,333,-0.0001721593289,333,0.0001141462344,,,333,0.1006259695,333,0.1004728377,333,0.3520268798,
332,0.06278636307,,,332,0.0004690481001,332,0.001051076339,,,332,0.1013254523,332,0.1005844548,332,0.3405172825,
331,0.06384181231,,,331,-0.0005558817647,331,-0.0001763511827,,,331,0.1012804061,331,0.1009585187,331,0.3295336664,
330,0.06407272816,,,330,-0.0005756845931,330,0.0003500675666,,,330,0.1018192247,330,0.1009614915,330,0.3180208206,
329,0.06416979432,,,329,-0.0002536601678,329,2.697401578E-5,,,329,0.1018447876,329,0.1002551541,329,0.3075519204,
328,0.06429647654,,,328,0.0003890072985,328,0.00100852258,,,328,0.1023099869,328,0.1006864086,328,0.2961575687,
327,0.06412367523,,,327,-1.009541029E-5,327,0.0004113156756,,,327,0.1025703624,327,0.1010964364,327,0.2835298181,
326,0.06394257396,,,326,0.0008953861543,326,0.0008786555263,,,326,0.1021730304,326,0.1015667245,326,0.2720471025,
325,0.06384211779,,,325,-6.471444067E-6,325,0.0006172233843,,,325,0.1024447605,325,0.1017528623,325,0.261736244,
324,0.06441232562,,,324,0.0003399121924,324,0.0001612736378,,,324,0.10204833,324,0.101185374,324,0.250587672,
323,0.06517141312,,,323,-0.0007089037099,323,-0.0008427537396,,,323,0.1030102223,323,0.1014798954,323,0.2399881333,
322,0.06414044648,,,322,0.0007126037381,322,0.001309238723,,,322,0.1031333655,322,0.1018835381,322,0.2293944359,
321,0.06471730024,,,321,7.678457041E-5,321,0.0003030491935,,,321,0.1033171192,321,0.1020569429,321,0.2196198553,
320,0.064790681,,,320,0.0003318036324,320,0.0003786437446,,,320,0.1029776409,320,0.1018990129,320,0.2099187076,
319,0.06465649605,,,319,-0.0003455437254,319,0.0002419717639,,,319,0.1032655984,319,0.1022345424,319,0.2001880556,
318,0.06473379582,,,318,3.7251506E-5,318,0.0007260608254,,,318,0.1035298333,318,0.1027502716,318,0.190690279,
317,0.06461957842,,,317,0.0002842432586,317,0.0008584759198,,,317,0.1038625166,317,0.1034930423,317,0.1815090328,
316,0.06461591274,,,316,0.0003977646993,316,0.001023364021,,,316,0.1034342721,316,0.1031379625,316,0.1739559025,
315,0.06544787437,,,315,-0.0002436739014,315,-0.0003559931938,,,315,0.1034681424,315,0.1030332968,315,0.1669375449,
314,0.06527708471,,,314,-9.022911399E-5,314,-0.000511516002,,,314,0.1041367501,314,0.1029734761,314,0.1594735235,
313,0.06570524722,,,313,-0.0004677663092,313,-0.0004753685207,,,313,0.1044590324,313,0.1036011353,313,0.1525013,
312,0.0648407191,,,312,4.846123556E-5,312,0.0005921826814,,,312,0.1044436246,312,0.1037557349,312,0.1472668499,
311,0.06493584812,,,311,0.0003258971556,311,0.0008046596195,,,311,0.105217889,311,0.1036740243,311,0.1416005343,
310,0.06556253135,,,310,-0.000221165159,310,0.0004268104094,,,310,0.1041598469,310,0.1032643542,310,0.137108013,
309,0.06496251374,,,309,0.0004989278968,309,0.0005550131318,,,309,0.1045167521,309,0.1039037183,309,0.1324398369,
308,0.06525214761,,,308,-0.0001981377718,308,0.000153297864,,,308,0.1050540283,308,0.1037081704,308,0.1292765141,
307,0.06551855057,,,307,7.59819668E-5,307,0.0004985391279,,,307,0.104993701,307,0.1045123711,307,0.1254465431,
306,0.06519863009,,,306,0.0003368034668,306,0.0006739202072,,,306,0.1052257046,306,0.1043494716,306,0.1236674264,
305,0.06496085972,,,305,0.000184761564,305,0.0008384528919,,,305,0.1055542752,305,0.1045647636,305,0.1216679513,
304,0.06491814554,,,304,0.0003942668845,304,0.0008917027735,,,304,0.1052530184,304,0.1041753143,304,0.1208705902,
303,0.06534420699,,,303,-0.0004820397589,303,0.0003860536672,,,303,0.1053263843,303,0.1041864008,303,0.1211942136,
302,0.06527479738,,,302,0.0001855384762,302,0.0004877065367,,,302,0.1058121398,302,0.104831472,302,0.1216019765,
301,0.06548826396,,,301,-0.000187787984,301,0.0004132848699,,,301,0.1058994085,301,0.1048061997,301,0.1229149997,
300,0.06569672376,,,300,-0.00112411764,300,0.0006559537142,,,300,0.1059171855,300,0.104794696,300,0.124935247,
299,0.06544179469,,,299,0.0001376575092,299,0.000631481118,,,299,0.1059684232,299,0.1047637612,299,0.1277042478,
298,0.06555117667,,,298,-0.0008758222684,298,0.0002625112829,,,298,0.1061749682,298,0.1047053486,298,0.1310966313,
297,0.06491781771,,,297,0.0003907950304,297,0.001113902661,,,297,0.1063964292,297,0.1051437855,297,0.1344292164,
296,0.0653674975,,,296,-9.897666314E-5,296,0.0002909003815,,,296,0.1065394878,296,0.1052336544,296,0.1392733604,
295,0.06505466998,,,295,0.0001590466272,295,0.001050531399,,,295,0.1065315157,295,0.1050033569,295,0.1456260979,
294,0.06509664655,,,294,0.0001986684656,294,0.000688724278,,,294,0.1067967191,294,0.1055034474,294,0.1514162868,
293,0.06468842924,,,293,0.0004616626829,293,0.0007312985836,,,293,0.1065507084,293,0.1055539772,293,0.158069998,
292,0.06493756175,,,292,-0.0002645257919,292,0.0005732864374,,,292,0.1066823974,292,0.1050771102,292,0.1676786095,
291,0.06512289494,,,291,1.2399556E-5,291,0.0006054027472,,,291,0.1071188599,291,0.1054767817,291,0.1771382093,
290,0.06484657526,,,290,0.0002836475032,290,0.000759329414,,,290,0.1071529463,290,0.1055255905,290,0.1875185668,
289,0.06423974782,,,289,8.807299309E-5,289,0.0004941335064,,,289,0.1066326946,289,0.105441235,289,0.2009450346,
288,0.06411662698,,,288,0.0006641720538,288,0.000598351995,,,288,0.1070738137,288,0.10583698,288,0.2152032703,
287,0.06456337869,,,287,1.959612018E-5,287,0.0005021414254,,,287,0.107176505,287,0.1059685573,287,0.2298164219,
286,0.06438356638,,,286,0.0003739025269,286,0.0004259294365,,,286,0.1070507243,286,0.1054752618,286,0.2432384342,
285,0.06410495192,,,285,-0.0002337908954,285,0.0008476343355,,,285,0.1071473211,285,0.1055335775,285,0.2510340512,
284,0.06387233734,,,284,0.0003841623256,284,0.0007019732147,,,284,0.1074110717,284,0.1058502272,284,0.2536476552,
283,0.06401453167,,,283,0.0001165283757,283,0.0001783391635,,,283,0.1073275432,283,0.1058685929,283,0.253502965,
282,0.06378916651,,,282,-0.00030767516,282,0.0003050697269,,,282,0.1068913713,282,0.1058165655,282,0.2538338006,
281,0.06355734915,,,281,4.426522992E-6,281,0.000557345862,,,281,0.1075201482,281,0.105835624,281,0.2568175197,
280,0.06312848628,,,280,0.0001958197245,280,0.000655201904,,,280,0.1076801345,280,0.1058931649,280,0.2619172931,
279,0.06291102618,,,279,0.0003895254922,279,0.0008394644246,,,279,0.1073093191,279,0.1058413088,279,0.2672368288,
278,0.06286937743,,,278,-3.831106369E-6,278,0.0006075801793,,,278,0.1074412391,278,0.1057636291,278,0.2695980668,
277,0.06251017749,,,277,0.0001908732957,277,0.0008690065588,,,277,0.1076170132,277,0.1058433205,277,0.2694270015,
276,0.06229515001,,,276,0.0007224307628,276,0.0005610004882,,,276,0.1079019979,276,0.1053938195,276,0.2685544491,
275,0.06187544018,,,275,0.0009870136855,275,0.001103002811,,,275,0.1078673154,275,0.1059545502,275,0.2663422823,
274,0.06182057783,,,274,0.0001469018316,274,0.0005571385263,,,274,0.107794717,274,0.1059812084,274,0.2639974058,
273,0.06206093356,,,273,-0.0003436814004,273,0.0005614670226,,,273,0.1076783091,273,0.1064697877,273,0.2625000179,
272,0.06113779172,,,272,0.0008458706434,272,0.0008848289144,,,272,0.1079726592,272,0.1063045636,272,0.2620841563,
271,0.06136113405,,,271,6.668737478E-5,271,0.0005507883616,,,271,0.108239837,271,0.106645301,271,0.2618955672,
270,0.06123945117,,,270,-0.0001331887615,270,0.0005061065895,,,270,0.1085703596,270,0.1060024202,270,0.2637147009,
269,0.06063659489,,,269,0.0002861859975,269,0.0005177431158,,,269,0.1086623743,269,0.1066829637,269,0.2646040618,
268,0.06033985317,,,268,0.0006290443125,268,0.0005685171927,,,268,0.1092839018,268,0.1069737896,268,0.2687514722,
267,0.06032843143,,,267,-6.316130566E-6,267,0.0004679338017,,,267,0.1090801358,267,0.1074308306,267,0.2735906243,
266,0.06028991565,,,266,6.249322178E-5,266,0.000262070942,,,266,0.1095992997,266,0.1073120683,266,0.2826130688,
265,0.06000705063,,,265,0.0002811867453,265,6.334758655E-5,,,265,0.1098782867,265,0.1074268892,265,0.2945763171,
264,0.05945146456,,,264,-2.428035987E-5,264,0.0005652772379,,,264,0.1099320948,264,0.1077027172,264,0.3106139004,
263,0.05904241279,,,263,0.0003051474341,263,0.0004137253563,,,263,0.1109820828,263,0.1086495444,263,0.330745101,
262,0.05896157771,,,262,0.0001626978919,262,0.000416782801,,,262,0.1114866957,262,0.1091306508,262,0.3563855886,
261,0.05871534348,,,261,0.0001369324746,261,0.0001478599297,,,261,0.11214073,261,0.1097536162,261,0.3853611946,
260,0.05832249671,,,260,0.0001708033233,260,0.0008424470434,,,260,0.1126170009,260,0.1101103127,260,0.4182952046,
259,0.05797114968,,,259,0.000287973322,259,0.0007062772638,,,259,0.1133717746,259,0.1108547226,259,0.4542192817,
258,0.05790500715,,,258,-0.0001008917825,258,0.000418130192,,,258,0.1143141761,258,0.1119409427,258,0.4921854436,
257,0.05735945702,,,257,0.0002698155877,257,0.0006290443125,,,257,0.1154079139,257,0.1131123379,257,0.5309005976,
256,0.05739736184,,,256,0.0002874552447,256,0.0004596414219,,,256,0.1166078001,256,0.1140438765,256,0.5709018111,
255,0.05708732456,,,255,8.540620911E-5,255,0.0006026808987,,,255,0.1180461347,255,0.115184173,255,0.6097984314,
254,0.05704245344,,,254,-0.0002990352805,254,0.0001773033,,,254,0.1193190664,254,0.1165913492,254,0.6493787169,
253,0.05669458956,,,253,2.412639333E-5,253,0.0002358593192,,,253,0.120730117,253,0.1181637943,253,0.6873395443,
252,0.05624675006,,,252,0.0002415055642,252,0.0007182821282,,,252,0.1225515157,252,0.1200634688,252,0.723800838,
251,0.05636035278,,,251,7.673278742E-5,251,0.0004420466139,,,251,0.1245990694,251,0.1217221469,251,0.7583173513,
250,0.05638926849,,,250,0.0001637337264,250,0.0004773924593,,,250,0.1263730824,250,0.1237706095,250,0.7907017469,
249,0.05627205968,,,249,-2.376266821E-5,249,0.0007311429945,,,249,0.1287906915,249,0.1266434789,249,0.8189992309,
248,0.05595543608,,,248,0.0005147886113,248,0.0005510475603,,,248,0.1309598386,248,0.1285785735,248,0.8461403251,
247,0.05610970035,,,247,-0.000142970559,247,4.374948912E-5,,,247,0.1333850622,247,0.131154567,247,0.8701454401,
246,0.05564830825,,,246,2.174426754E-6,246,0.0004493021115,,,246,0.1362574399,246,0.1342222244,246,0.8929514885,
245,0.05554401129,,,245,0.000348564965,245,0.0006088244845,,,245,0.1398056448,245,0.1375960261,245,0.9140254259,
244,0.05557184294,,,244,0.0002394335315,244,0.0003070384264,,,244,0.1431305557,244,0.1409546286,244,0.9348724484,
243,0.05562668294,,,243,4.993690527E-5,243,0.0005197905703,,,243,0.1468389928,243,0.1449231505,243,0.9564914703,
242,0.05564521998,,,242,8.4344676E-5,242,0.000389991852,,,242,0.1508582383,242,0.1486510336,242,0.9762467146,
241,0.0555322431,,,241,7.046732208E-5,241,0.0007737992564,,,241,0.1551822573,241,0.1532184631,241,0.9957315326,
240,0.05571142957,,,240,0.0002700746118,240,0.0004399477039,,,240,0.1598967612,240,0.157840848,240,1.014774561,
239,0.05572608486,,,239,5.273291754E-5,239,0.0002791404258,,,239,0.1647402942,239,0.1628177911,239,1.032192826,
238,0.05561099946,,,238,0.0002220289171,238,0.0004943667445,,,238,0.1699455678,238,0.1681832522,238,1.048643589,
237,0.05579766631,,,237,3.352362182E-5,237,0.0003080487077,,,237,0.1759198457,237,0.1740832031,237,1.065481782,
236,0.05598794669,,,236,-5.844658517E-5,236,0.0002931539784,,,236,0.1821934134,236,0.1804862916,236,1.082265019,
235,0.05617919192,,,235,0.0001542818791,235,0.0003742911504,,,235,0.1883365959,235,0.1872100532,235,1.09776926,
234,0.05600487813,,,234,0.000288543175,234,-5.202768079E-5,,,234,0.1957618594,234,0.1946585774,234,1.116304755,
233,0.05597478151,,,233,0.0004587344592,233,0.0002626666683,,,233,0.2033343017,233,0.2026653141,233,1.135861397,
232,0.05607488379,,,232,0.000241557369,232,0.0002047285961,,,232,0.2112008631,232,0.2108832598,232,1.157356739,
231,0.05599233136,,,231,-3.572248943E-6,231,0.0005445937859,,,231,0.219905898,231,0.2197710574,231,1.180534005,
230,0.05606142431,,,230,9.814479563E-5,230,0.0003199648636,,,230,0.2288288474,230,0.2296480238,230,1.206612229,
229,0.05652328208,,,229,-0.0001703480375,229,0.000114534625,,,229,0.2386650741,229,0.2398864776,229,1.232990146,
228,0.05639177188,,,228,0.0005344597739,228,0.0005918716197,,,228,0.2488469332,228,0.2505909503,228,1.261571646,
227,0.05663026497,,,227,0.0002500527771,227,0.000349238544,,,227,0.2601360083,227,0.2621585131,227,1.288827419,
226,0.05674532428,,,226,0.0002397961362,226,0.0003187473339,,,226,0.2717032433,226,0.2739633918,226,1.311622858,
225,0.05673337728,,,225,-5.02676412E-5,225,0.0003531764087,,,225,0.283942163,225,0.2863075137,225,1.331097841,
224,0.05698303506,,,224,-7.102528616E-5,224,8.341259672E-5,,,224,0.2969223261,224,0.2999425828,224,1.34465611,
223,0.05706618726,,,223,-0.0001119682638,223,0.0002984383027,,,223,0.3105596602,223,0.3142527044,223,1.352372408,
222,0.05718791857,,,222,0.0003798873804,222,0.0003486945061,,,222,0.325401336,222,0.3294963241,222,1.349898696,
221,0.05750145391,,,221,-0.0003092789557,221,0.0003446789924,,,221,0.3405812681,221,0.345513016,221,1.338393807,
220,0.0572257489,,,220,0.0003768042661,220,0.0005782113294,,,220,0.3575835228,220,0.361931175,220,1.32015419,
219,0.05786294863,,,219,-0.0002135584946,219,3.883068712E-5,,,219,0.3746795654,219,0.3801649809,219,1.294430733,
218,0.05774381012,,,218,-8.557058027E-5,218,0.00044409369,,,218,0.3933201134,218,0.3991579413,218,1.266608834,
217,0.05781249702,,,217,8.097886166E-5,217,0.0004475141468,,,217,0.4132514894,217,0.4191599786,217,1.232774258,
216,0.05833271146,,,216,0.0002032783086,216,0.0004510641738,,,216,0.4334760606,216,0.4396591187,216,1.20206511,
215,0.05809976533,,,215,0.0003516219731,215,0.0003496530699,,,215,0.4552595913,215,0.4627231658,215,1.168216705,
214,0.05806369334,,,214,0.0002161498414,214,0.00058622082,,,214,0.4791645706,214,0.4868575037,214,1.138116956,
213,0.05855328217,,,213,0.0003654306056,213,0.0004052526492,,,213,0.5049857497,213,0.5135067105,213,1.110625863,
212,0.05870518088,,,212,0.00053925463,212,0.0005261661718,,,212,0.5340157151,212,0.5428207517,212,1.090681553,
211,0.05941133574,,,211,0.0001718391577,211,9.371731721E-5,,,211,0.567481637,211,0.577681601,211,1.068646073,
210,0.05970188975,,,210,-1.723971218E-5,210,0.0001542818791,,,210,0.6072099805,210,0.6180712581,210,1.053495169,
209,0.05975636467,,,209,0.0005027634325,209,0.0004202807904,,,209,0.654299736,209,0.6664120555,209,1.044615269,
208,0.06027977541,,,208,0.0004486802209,208,0.0003282545658,,,208,0.7130035758,208,0.7259759903,208,1.041798234,
207,0.06070556492,,,207,-0.0006643985398,207,0.0004765372723,,,207,0.7855327129,207,0.7999824286,207,1.047279239,
206,0.0612639524,,,206,-0.0001077240377,206,0.0001233900548,,,206,0.8788466454,206,0.8921278119,206,1.068241835,
205,0.06077156961,,,205,0.000724038342,205,0.0008184826584,,,205,0.9961246252,205,1.01092875,205,1.104828238,
204,0.06136769429,,,204,2.899325227E-5,204,0.0002587814524,,,204,1.146741152,204,1.161895275,204,1.166563869,
203,0.06238679588,,,203,-0.0008374832105,203,-0.0006254721084,,,203,1.337480545,203,1.353237152,203,1.239263773,
202,0.06197714806,,,202,-0.0002081250859,202,0.0003607672406,,,202,1.581299901,202,1.596495032,202,1.372441888,
201,0.06193352863,,,201,0.0003310782777,201,0.0007076514303,,,201,1.892042637,201,1.90322578,201,1.471373081,
200,0.06156726182,,,200,0.0001485073008,200,0.0008078754181,,,200,2.29050374,200,2.278599739,200,1.321021438,

Baseline 100%T,
Baseline 100%T
Collection Time: 2024-03-13  7:30:47
Operator Name  :
Scan Software Version: 4.20(468)
Parameter List :
Instrument                        Cary 5000
Instrument Version                1.12
Start (nm)                        800.00
Stop (nm)                         200.00
X Mode                            Nanometers
Y Mode                            Abs
UV-Vis Scan Rate (nm/min)         60.000
UV-Vis Data Interval (nm)         1.000
UV-Vis Ave. Time (sec)            1.000
UV-Vis SBW (nm)                   2.000
Slit Height                       Full
Beam Mode                         Double
Signal-to-noise Mode              Off
UV Source                         On
Vis Source                        On
Third Source                      Off
Source Changeover (nm)            350.00
Detector Changeover (nm)          800.00
Grating Changeover (nm)           800.00
Baseline Correction               On
Baseline Type                     Baseline correction
Baseline File Name
Baseline Std Ref File Name
Cycle Mode                        On
Cycle Count                       1
Cycle Time (min)                  15.00
Comments
Method Log     :
Method Name    :
Date/Time stamp: 2024-03-13  7:29:35
Method Modifications:
UVVIS SAT Changed: 2024-03-13  7:30:08, Old: 0.100, New: 1.000
NIR SAT Changed: 2024-03-13  7:30:08, Old: 0.100, New: 1.000
Common SAT Changed: 2024-03-13  7:30:08, Old: 0.100, New: 1.000
Cycle mode Changed: 2024-03-13  7:30:29, Old:0, New:1
Cycle Period Changed: 2024-03-13  7:30:29, Old:     1.00, New:    15.00
Baseline Correction Changed: 2024-03-13  7:30:43, Old:0, New:1
End Method Modifications
<SBW (nm)> , 2.00
<Energy> , 1148.15
<Slit height> , Full
<Current Wavelength> , 200.00
<Cycle Count> , 0
<Cycle Time> , 0:00

baseline_air_1_1,
baseline_air_1_1
Collection Time: 2024-03-13  7:42:03
Operator Name  :
Scan Software Version: 4.20(468)
Parameter List :
Instrument                        Cary 5000
Instrument Version                1.12
Start (nm)                        800.00
Stop (nm)                         200.00
X Mode                            Nanometers
Y Mode                            Abs
UV-Vis Scan Rate (nm/min)         60.000
UV-Vis Data Interval (nm)         1.000
UV-Vis Ave. Time (sec)            1.000
UV-Vis SBW (nm)                   2.000
Slit Height                       Full
Beam Mode                         Double
Signal-to-noise Mode              Off
UV Source                         On
Vis Source                        On
Third Source                      Off
Source Changeover (nm)            350.00
Detector Changeover (nm)          800.00
Grating Changeover (nm)           800.00
Baseline Correction               On
Baseline Type                     Baseline correction
Baseline File Name
Baseline Std Ref File Name
Cycle Mode                        On
Cycle Count                       1
Cycle Time (min)                  15.00
Comments
Method Log     :
Method Name    :
Date/Time stamp: 2024-03-13  7:29:35
Method Modifications:
UVVIS SAT Changed: 2024-03-13  7:30:08, Old: 0.100, New: 1.000
NIR SAT Changed: 2024-03-13  7:30:08, Old: 0.100, New: 1.000
Common SAT Changed: 2024-03-13  7:30:08, Old: 0.100, New: 1.000
Cycle mode Changed: 2024-03-13  7:30:29, Old:0, New:1
Cycle Period Changed: 2024-03-13  7:30:29, Old:     1.00, New:    15.00
Baseline Correction Changed: 2024-03-13  7:30:43, Old:0, New:1
Saved as D:\data\yaroslav\Hantzsch-ester-HRP01\baseline-test1.BSW
End Method Modifications
[Time] , 0.000
<SBW (nm)> , 2.00
<Energy> , 870.96
<Slit height> , Full
<Current Wavelength> , 796.00
<Cycle Count> , 1
<Cycle Time> , 14:54

baseline_air_1_1,
baseline_air_1_1
Collection Time: 2024-03-13  7:42:30
Operator Name  :
Scan Software Version: 4.20(468)
Parameter List :
Instrument                        Cary 5000
Instrument Version                1.12
Start (nm)                        800.00
Stop (nm)                         200.00
X Mode                            Nanometers
Y Mode                            Abs
UV-Vis Scan Rate (nm/min)         60.000
UV-Vis Data Interval (nm)         1.000
UV-Vis Ave. Time (sec)            1.000
UV-Vis SBW (nm)                   2.000
Slit Height                       Full
Beam Mode                         Double
Signal-to-noise Mode              Off
UV Source                         On
Vis Source                        On
Third Source                      Off
Source Changeover (nm)            350.00
Detector Changeover (nm)          800.00
Grating Changeover (nm)           800.00
Baseline Correction               On
Baseline Type                     Baseline correction
Baseline File Name                D:\data\yaroslav\Hantzsch-ester-HRP01\baseline-test1.BSW
Baseline Std Ref File Name
Cycle Mode                        On
Cycle Count                       10
Cycle Time (min)                  15.00
Comments
Method Log     :
Method Name    :
Date/Time stamp: 2024-03-13  7:29:35
Method Modifications:
UVVIS SAT Changed: 2024-03-13  7:30:08, Old: 0.100, New: 1.000
NIR SAT Changed: 2024-03-13  7:30:08, Old: 0.100, New: 1.000
Common SAT Changed: 2024-03-13  7:30:08, Old: 0.100, New: 1.000
Cycle mode Changed: 2024-03-13  7:30:29, Old:0, New:1
Cycle Period Changed: 2024-03-13  7:30:29, Old:     1.00, New:    15.00
Baseline Correction Changed: 2024-03-13  7:30:43, Old:0, New:1
Saved as D:\data\yaroslav\Hantzsch-ester-HRP01\baseline-test1.BSWNum Cycles Changed: 2024-03-13  7:42:20, Old:1, New:10
Saved as D:\data\yaroslav\Hantzsch-ester-HRP01\baseline-test1.BSW
End Method Modifications
[Time] , 0.000
<SBW (nm)> , 2.00
<Energy> , 1148.15
<Slit height> , Full
<Current Wavelength> , 200.00
<Cycle Count> , 1
<Cycle Time> , 4:49

baseline_air_1_2,
baseline_air_1_2
Collection Time: 2024-03-13  7:57:32
Operator Name  :
Scan Software Version: 4.20(468)
Parameter List :
Instrument                        Cary 5000
Instrument Version                1.12
Start (nm)                        800.00
Stop (nm)                         200.00
X Mode                            Nanometers
Y Mode                            Abs
UV-Vis Scan Rate (nm/min)         60.000
UV-Vis Data Interval (nm)         1.000
UV-Vis Ave. Time (sec)            1.000
UV-Vis SBW (nm)                   2.000
Slit Height                       Full
Beam Mode                         Double
Signal-to-noise Mode              Off
UV Source                         On
Vis Source                        On
Third Source                      Off
Source Changeover (nm)            350.00
Detector Changeover (nm)          800.00
Grating Changeover (nm)           800.00
Baseline Correction               On
Baseline Type                     Baseline correction
Baseline File Name                D:\data\yaroslav\Hantzsch-ester-HRP01\baseline-test1.BSW
Baseline Std Ref File Name
Cycle Mode                        On
Cycle Count                       10
Cycle Time (min)                  15.00
Comments
Method Log     :
Method Name    :
Date/Time stamp: 2024-03-13  7:29:35
Method Modifications:
UVVIS SAT Changed: 2024-03-13  7:30:08, Old: 0.100, New: 1.000
NIR SAT Changed: 2024-03-13  7:30:08, Old: 0.100, New: 1.000
Common SAT Changed: 2024-03-13  7:30:08, Old: 0.100, New: 1.000
Cycle mode Changed: 2024-03-13  7:30:29, Old:0, New:1
Cycle Period Changed: 2024-03-13  7:30:29, Old:     1.00, New:    15.00
Baseline Correction Changed: 2024-03-13  7:30:43, Old:0, New:1
Saved as D:\data\yaroslav\Hantzsch-ester-HRP01\baseline-test1.BSWNum Cycles Changed: 2024-03-13  7:42:20, Old:1, New:10
Saved as D:\data\yaroslav\Hantzsch-ester-HRP01\baseline-test1.BSW
End Method Modifications
[Time] , 15.009
<SBW (nm)> , 2.00
<Energy> , 1148.15
<Slit height> , Full
<Current Wavelength> , 200.00
<Cycle Count> , 2
<Cycle Time> , 4:49

baseline_air_1_3,
baseline_air_1_3
Collection Time: 2024-03-13  8:12:32
Operator Name  :
Scan Software Version: 4.20(468)
Parameter List :
Instrument                        Cary 5000
Instrument Version                1.12
Start (nm)                        800.00
Stop (nm)                         200.00
X Mode                            Nanometers
Y Mode                            Abs
UV-Vis Scan Rate (nm/min)         60.000
UV-Vis Data Interval (nm)         1.000
UV-Vis Ave. Time (sec)            1.000
UV-Vis SBW (nm)                   2.000
Slit Height                       Full
Beam Mode                         Double
Signal-to-noise Mode              Off
UV Source                         On
Vis Source                        On
Third Source                      Off
Source Changeover (nm)            350.00
Detector Changeover (nm)          800.00
Grating Changeover (nm)           800.00
Baseline Correction               On
Baseline Type                     Baseline correction
Baseline File Name                D:\data\yaroslav\Hantzsch-ester-HRP01\baseline-test1.BSW
Baseline Std Ref File Name
Cycle Mode                        On
Cycle Count                       10
Cycle Time (min)                  15.00
Comments
Method Log     :
Method Name    :
Date/Time stamp: 2024-03-13  7:29:35
Method Modifications:
UVVIS SAT Changed: 2024-03-13  7:30:08, Old: 0.100, New: 1.000
NIR SAT Changed: 2024-03-13  7:30:08, Old: 0.100, New: 1.000
Common SAT Changed: 2024-03-13  7:30:08, Old: 0.100, New: 1.000
Cycle mode Changed: 2024-03-13  7:30:29, Old:0, New:1
Cycle Period Changed: 2024-03-13  7:30:29, Old:     1.00, New:    15.00
Baseline Correction Changed: 2024-03-13  7:30:43, Old:0, New:1
Saved as D:\data\yaroslav\Hantzsch-ester-HRP01\baseline-test1.BSWNum Cycles Changed: 2024-03-13  7:42:20, Old:1, New:10
Saved as D:\data\yaroslav\Hantzsch-ester-HRP01\baseline-test1.BSW
End Method Modifications
[Time] , 30.021
<SBW (nm)> , 2.00
<Energy> , 831.76
<Slit height> , Full
<Current Wavelength> , 789.00
<Cycle Count> , 3
<Cycle Time> , 14:46

Baseline 100%T,
Baseline 100%T
Collection Time: 2024-03-13  8:14:30
Operator Name  :
Scan Software Version: 4.20(468)
Parameter List :
Instrument                        Cary 5000
Instrument Version                1.12
Start (nm)                        800.00
Stop (nm)                         200.00
X Mode                            Nanometers
Y Mode                            Abs
UV-Vis Scan Rate (nm/min)         60.000
UV-Vis Data Interval (nm)         1.000
UV-Vis Ave. Time (sec)            1.000
UV-Vis SBW (nm)                   2.000
Slit Height                       Full
Beam Mode                         Double
Signal-to-noise Mode              Off
UV Source                         On
Vis Source                        On
Third Source                      Off
Source Changeover (nm)            350.00
Detector Changeover (nm)          800.00
Grating Changeover (nm)           800.00
Baseline Correction               On
Baseline Type                     Baseline correction
Baseline File Name                D:\data\yaroslav\Hantzsch-ester-HRP01\baseline-test1.BSW
Baseline Std Ref File Name
Cycle Mode                        On
Cycle Count                       10
Cycle Time (min)                  15.00
Comments
Method Log     :
Method Name    :
Date/Time stamp: 2024-03-13  7:29:35
Method Modifications:
UVVIS SAT Changed: 2024-03-13  7:30:08, Old: 0.100, New: 1.000
NIR SAT Changed: 2024-03-13  7:30:08, Old: 0.100, New: 1.000
Common SAT Changed: 2024-03-13  7:30:08, Old: 0.100, New: 1.000
Cycle mode Changed: 2024-03-13  7:30:29, Old:0, New:1
Cycle Period Changed: 2024-03-13  7:30:29, Old:     1.00, New:    15.00
Baseline Correction Changed: 2024-03-13  7:30:43, Old:0, New:1
Saved as D:\data\yaroslav\Hantzsch-ester-HRP01\baseline-test1.BSWNum Cycles Changed: 2024-03-13  7:42:20, Old:1, New:10
Saved as D:\data\yaroslav\Hantzsch-ester-HRP01\baseline-test1.BSW
End Method Modifications
<SBW (nm)> , 2.00
<Energy> , 1148.15
<Slit height> , Full
<Current Wavelength> , 200.00
<Cycle Count> , 3
<Cycle Time> , 0:00

Baseline 100%T,
Baseline 100%T
Collection Time: 2024-03-13  8:29:23
Operator Name  :
Scan Software Version: 4.20(468)
Parameter List :
Instrument                        Cary 5000
Instrument Version                1.12
Start (nm)                        800.00
Stop (nm)                         200.00
X Mode                            Nanometers
Y Mode                            Abs
UV-Vis Scan Rate (nm/min)         60.000
UV-Vis Data Interval (nm)         1.000
UV-Vis Ave. Time (sec)            1.000
UV-Vis SBW (nm)                   2.000
Slit Height                       Full
Beam Mode                         Double
Signal-to-noise Mode              Off
UV Source                         On
Vis Source                        On
Third Source                      Off
Source Changeover (nm)            350.00
Detector Changeover (nm)          800.00
Grating Changeover (nm)           800.00
Baseline Correction               On
Baseline Type                     Baseline correction
Baseline File Name
Baseline Std Ref File Name
Cycle Mode                        On
Cycle Count                       10
Cycle Time (min)                  15.00
Comments
Method Log     :
Method Name    :
Date/Time stamp: 2024-03-13  7:29:35
Method Modifications:
UVVIS SAT Changed: 2024-03-13  7:30:08, Old: 0.100, New: 1.000
NIR SAT Changed: 2024-03-13  7:30:08, Old: 0.100, New: 1.000
Common SAT Changed: 2024-03-13  7:30:08, Old: 0.100, New: 1.000
Cycle mode Changed: 2024-03-13  7:30:29, Old:0, New:1
Cycle Period Changed: 2024-03-13  7:30:29, Old:     1.00, New:    15.00
Baseline Correction Changed: 2024-03-13  7:30:43, Old:0, New:1
Saved as D:\data\yaroslav\Hantzsch-ester-HRP01\baseline-test1.BSWNum Cycles Changed: 2024-03-13  7:42:20, Old:1, New:10
Saved as D:\data\yaroslav\Hantzsch-ester-HRP01\baseline-test1.BSW
End Method Modifications
<SBW (nm)> , 2.00
<Energy> , 1148.15
<Slit height> , Full
<Current Wavelength> , 200.00
<Cycle Count> , 3
<Cycle Time> , 0:00

HRP01_0.4mg_per_20_mL_repeat1,
HRP01_0.4mg_per_20_mL_repeat1
Collection Time: 2024-03-13  8:42:50
Operator Name  :
Scan Software Version: 4.20(468)
Parameter List :
Instrument                        Cary 5000
Instrument Version                1.12
Start (nm)                        800.00
Stop (nm)                         200.00
X Mode                            Nanometers
Y Mode                            Abs
UV-Vis Scan Rate (nm/min)         60.000
UV-Vis Data Interval (nm)         1.000
UV-Vis Ave. Time (sec)            1.000
UV-Vis SBW (nm)                   2.000
Slit Height                       Full
Beam Mode                         Double
Signal-to-noise Mode              Off
UV Source                         On
Vis Source                        On
Third Source                      Off
Source Changeover (nm)            350.00
Detector Changeover (nm)          800.00
Grating Changeover (nm)           800.00
Baseline Correction               On
Baseline Type                     Baseline correction
Baseline File Name
Baseline Std Ref File Name
Cycle Mode                        Off
Comments
Method Log     :
Method Name    :
Date/Time stamp: 2024-03-13  7:29:35
Method Modifications:
UVVIS SAT Changed: 2024-03-13  7:30:08, Old: 0.100, New: 1.000
NIR SAT Changed: 2024-03-13  7:30:08, Old: 0.100, New: 1.000
Common SAT Changed: 2024-03-13  7:30:08, Old: 0.100, New: 1.000
Cycle mode Changed: 2024-03-13  7:30:29, Old:0, New:1
Cycle Period Changed: 2024-03-13  7:30:29, Old:     1.00, New:    15.00
Baseline Correction Changed: 2024-03-13  7:30:43, Old:0, New:1
Saved as D:\data\yaroslav\Hantzsch-ester-HRP01\baseline-test1.BSWNum Cycles Changed: 2024-03-13  7:42:20, Old:1, New:10
Saved as D:\data\yaroslav\Hantzsch-ester-HRP01\baseline-test1.BSW
Cycle mode Changed: 2024-03-13  8:39:46, Old:1, New:0
End Method Modifications
<SBW (nm)> , 2.00
<Energy> , 1202.26
<Slit height> , Full
<Current Wavelength> , 200.00

