EAB_stitched,
Wavelength (nm),Abs
630,7.648874998760664e-07
629,7.515108198552719e-07
628,5.958315567519747e-07
627,6.813474555579343e-07
626,7.26715933751188e-07
625,8.376716222028875e-07
624,7.618812392451242e-07
623,6.625078792937115e-07
622,7.447924707846533e-07
621,6.114204533078941e-07
620,5.308418598803184e-07
619,6.056325251513206e-07
618,7.772559068888138e-07
617,3.859253984220799e-07
616,3.707701189643658e-07
615,5.190067385528585e-07
614,6.674698076303088e-07
613,1.2031002086504767e-06
612,1.393947311394513e-06
611,1.6606753231125245e-06
610,1.726732677984213e-06
609,1.2115045044616063e-06
608,1.0932563989011158e-06
607,9.526406223603212e-07
606,9.096639187163118e-07
605,8.905290932374671e-07
604,7.399302562141655e-07
603,5.02918096023364e-07
602,5.212648516133493e-07
601,4.3546696585321017e-07
600,4.341971195791785e-07
599,4.948941882524105e-07
598,4.159760133936264e-07
597,3.6659852335599e-07
596,8.810023715597481e-07
595,5.021923079496766e-07
594,7.223987279290979e-07
593,6.709593388980113e-07
592,5.290272312195845e-07
591,7.164474918221751e-07
590,5.613086204973705e-07
589,6.770307928950524e-07
588,6.970209934257904e-07
587,6.550449579388344e-07
586,5.776219020110506e-07
585,7.070669690852093e-07
584,7.570188430254004e-07
583,7.336761217957285e-07
582,5.724193116880424e-07
581,8.935566276688449e-07
580,9.138423036981418e-07
579,8.159578161524394e-07
578,4.317984656872305e-07
577,9.063333947599977e-07
576,2.73163794252082e-07
575,4.753393248110741e-07
574,6.604706936942877e-07
573,5.181801050600992e-07
572,6.043619998699583e-07
571,3.3802331549625454e-07
570,3.3703593129490756e-07
569,5.434032672616466e-07
568,3.095915904701894e-07
567,2.1875105024017748e-07
566,4.010208858100069e-07
565,6.750511448775663e-08
564,2.9891268324455637e-07
563,3.1424609427222285e-07
562,1.1897476455516952e-08
561,3.9894500052527846e-07
560,7.91029345729429e-08
559,1.0828047644491697e-07
558,3.1847750450101843e-07
557,5.856477108003509e-07
556,5.186438218098601e-07
555,9.674206374682649e-08
554,6.387279649020356e-07
553,1.3331193968267834e-07
552,6.906869250233763e-07
551,6.106742517015328e-07
550,3.331468431715259e-07
549,4.948740463382205e-07
548,3.50718632656579e-07
547,9.274070948770411e-07
546,5.426773885966242e-07
545,3.385875381614224e-07
544,3.9033910438957996e-07
543,5.020108495392977e-07
542,2.902086122290374e-07
541,2.1536691324299027e-07
540,4.533262869487271e-07
539,4.3242331790603225e-07
538,0.0
537,1.4221335626267916e-07
536,4.2504612418150665e-07
535,4.2913783106269183e-07
534,2.438511430629674e-07
533,7.246581989264891e-07
532,6.357228355352516e-07
531,8.619499250978043e-07
530,6.581511138295992e-07
529,7.230644523922746e-07
528,8.121438867221341e-07
527,8.004603960830246e-07
526,8.014894895460281e-07
525,8.473181087362863e-07
524,9.056673089423708e-07
523,1.0131886865607965e-06
522,1.0119368091753193e-06
521,9.728288026726495e-07
520,6.990584053869115e-07
519,8.749272963976419e-07
518,1.4026192007907418e-06
517,1.301238348046941e-06
516,1.302814668385244e-06
515,1.1211078332362833e-06
514,1.4215001014784069e-06
513,1.4563941474319557e-06
512,1.647627160710622e-06
511,1.5529072633440942e-06
510,1.5825764497581626e-06
509,1.915223764484183e-06
508,2.0491524230255953e-06
507,1.788330384717445e-06
506,2.0038286642924356e-06
505,2.156613058570505e-06
504,1.7851531210826272e-06
503,2.49653934665116e-06
502,2.0128603925813256e-06
501,1.7268338852243012e-06
500,2.0350563373822877e-06
499,2.204064527830649e-06
498,2.444849292328466e-06
497,2.2849016172181993e-06
496,2.4366371823415085e-06
495,2.6124396731694286e-06
494,2.595885820493954e-06
493,2.759877632003238e-06
492,2.6462397179402508e-06
491,2.773882106089528e-06
490,2.945717770308594e-06
489,2.8319969352359094e-06
488,3.1733356021094976e-06
487,2.804369280161492e-06
486,3.0179985710646055e-06
485,2.8991364312126786e-06
484,2.7666159873732074e-06
483,3.194611988869524e-06
482,3.080624466125095e-06
481,2.717157567002426e-06
480,3.425509197458685e-06
479,3.046923274774858e-06
478,3.2093256399223243e-06
477,3.1415959176791206e-06
476,3.5585324208761728e-06
475,3.465939329678493e-06
474,3.5330628932443725e-06
473,3.423353605018243e-06
472,3.66779740953605e-06
471,3.6422583590808773e-06
470,3.854300919029406e-06
469,3.868045222576834e-06
468,4.0277669465671275e-06
467,3.8775750220271256e-06
466,3.934291413337309e-06
465,3.886188703574403e-06
464,4.2827406765439665e-06
463,4.207171809229982e-06
462,4.318033305710181e-06
461,4.263556152580823e-06
460,4.414062743985519e-06
459,4.368053345703254e-06
458,4.833676629384496e-06
457,4.886673146843425e-06
456,4.643386982171764e-06
455,4.752819624677737e-06
454,4.7459599655658005e-06
453,4.812909358152697e-06
452,5.429636339003295e-06
451,5.233980703392434e-06
450,5.2833185431967115e-06
449,5.689274304235597e-06
448,5.9230719495567495e-06
447,5.519004188150817e-06
446,5.854652422895843e-06
445,6.236851761003823e-06
444,6.5755134080408265e-06
443,6.641533285315988e-06
442,6.468812825245279e-06
441,6.719147666877942e-06
440,6.898571358541592e-06
439,7.030894275944955e-06
438,6.903934087984473e-06
437,7.608921248783555e-06
436,7.322581884833325e-06
435,7.490985366065728e-06
434,7.3865051916726e-06
433,7.458693113370506e-06
432,7.656754192324531e-06
431,7.687500269434271e-06
430,7.992267723586045e-06
429,7.99803890486508e-06
428,8.158654301880267e-06
427,7.792958846578258e-06
426,8.460028859358176e-06
425,8.461556205942861e-06
424,8.396871760813416e-06
423,8.638892741671021e-06
422,8.798531183063886e-06
421,8.598478539529281e-06
420,8.940654750125066e-06
419,8.77291174349076e-06
418,9.326054349625298e-06
417,9.627292032538083e-06
416,9.547578181617511e-06
415,9.916236354611314e-06
414,1.0080524907565025e-05
413,1.0575989013637147e-05
412,1.0562300841725234e-05
411,1.0991688576521336e-05
410,1.1122545707457175e-05
409,1.1401007904414477e-05
408,1.209187815833769e-05
407,1.1797274179528828e-05
406,1.2509678639264252e-05
405,1.2664868291814777e-05
404,1.3642898436236326e-05
403,1.381683338007765e-05
402,1.4568845273625549e-05
401,1.52616419114692e-05
400,1.5884073444254936e-05
399,1.6675454512515466e-05
398,1.798810016912237e-05
397,1.8593459325424873e-05
396,1.959640931880481e-05
395,2.0478097164469778e-05
394,2.1831038982319747e-05
393,2.415166495531283e-05
392,2.5602033920655608e-05
391,2.673532324356149e-05
390,2.8770147939474877e-05
389,3.093423434015655e-05
388,3.2936243907294824e-05
387,3.552784815985148e-05
386,3.733186037923451e-05
385,4.0098362775368795e-05
384,4.276225416229886e-05
383,4.5387820678769934e-05
382,4.800082080844667e-05
381,5.133656195475188e-05
380,5.380822935250821e-05
379,5.677159063936403e-05
378,5.973717668611682e-05
377,6.281013030817373e-05
376,6.55730377524089e-05
375,6.94415206860658e-05
374,7.292965171499204e-05
373,7.551513499485032e-05
372,7.90056703566955e-05
371,8.255504587168422e-05
370,8.592178295611079e-05
369,8.90373371730263e-05
368,9.195013165180248e-05
367,9.5041874033439e-05
366,9.887557197055938e-05
365,0.00010184627958484443
364,0.00010441656618764866
363,0.00010837428840618495
362,0.00011159101681484663
361,0.00011392112261508766
360,0.00011678541278221393
359,0.00011965969116894094
358,0.00012223677950916792
357,0.00012500502287636438
356,0.0001275323323276224
355,0.00013001313047660674
354,0.00013196527134104878
353,0.0001355725599915464
352,0.0001377850087204281
351,0.00014060007622160797
350,0.00014292071526619203
349,0.00014465726352720526
348,0.00014599736520913063
347,0.00014872289798881295
346,0.00015338568191665237
345,0.00015543099600831675
344,0.00015730814412123596
343,0.00016176860291606306
342,0.0001634911421796441
341,0.00016663258810003164
340,0.00017093899426854313
339,0.00017320713139636502
338,0.0001787234678961622
337,0.0001821045731551692
336,0.00018877685501545854
335,0.00019352486330573437
334,0.00020107987436880788
333,0.00020877963351157466
332,0.0002163058154568496
331,0.00022549490867121213
330,0.00023666396377676748
329,0.0002481588990103061
328,0.0002636669899614094
327,0.00028067669745843567
326,0.00030031620376692414
325,0.0003197947861157558
324,0.0003470801011997748
323,0.0003732969316864272
322,0.0004034236985120232
321,0.0004378479260588957
320,0.0004801200211835615
319,0.0005280911492481454
318,0.0005836657462642537
317,0.0006459912214832983
316,0.0007248602486375494
315,0.0008163711534693391
314,0.0009318591974011653
313,0.0010842498350375745
312,0.0012770635544980826
311,0.001532746997391664
310,0.0018649340855427159
309,0.0023193840209315745
308,0.0029314482018075226
307,0.0037881979445090683
306,0.004930630722265857
305,0.006543353490038983
304,0.008793753603568882
303,0.011951152450951592
302,0.0161176456541768
301,0.021825181914161062
300,0.02993103921281818
299,0.04055705139820179
298,0.054363438597694984
297,0.07190176014005156
296,0.09407550828314727
295,0.12140884413009963
294,0.15324279437691538
293,0.18957805128140623
292,0.2302265008135065
291,0.2804295165403933
290,0.3271254641403933
289,0.37610662414039325
288,0.4244485838403933
287,0.47159535124039326
286,0.5202901108403932
285,0.5671012742403932
284,0.6100589973403933
283,0.6474700910403933
282,0.6863683206403933
281,0.7201241595403933
280,0.7505462510403933
279,0.7756989939403933
278,0.7966662390403932
277,0.8139211280403933
276,0.8261468155403933
275,0.8323340756403933
274,0.8325347645403933
273,0.8289923412403932
272,0.8188795788403933
271,0.8059097869403933
270,0.7887238008403933
269,0.7703622324403933
268,0.7490139944403933
267,0.7230623705403932
266,0.6962207896403932
265,0.6686543567403933
264,0.6384752733403932
263,0.6074584467403933
262,0.5740444404403933
261,0.5420477731403933
260,0.5095704538403932
259,0.47731927464039325
258,0.4450809104403933
257,0.41302073424039326
256,0.38264045544039327
255,0.35256305764039325
254,0.3254084629403933
253,0.29702887364039327
252,0.269922855637209
251,0.24610120177931008
250,0.22430157229270148
249,0.20393037806232323
248,0.18535480677670144
247,0.16784035275657516
246,0.15209920565163162
245,0.1373220279730128
244,0.12442370210785463
243,0.11236019795220265
242,0.10162008101365874
241,0.092239936479449
240,0.08388043908830164
239,0.07644449800826211
238,0.07008013176581256
237,0.06445113448208438
236,0.059737125456036634
235,0.0556570738688816
234,0.05257053188555531
233,0.050096388775120904
232,0.04768734077292287
231,0.04580177380453424
230,0.0442853329066671
229,0.043332668071449705
228,0.04204181825592821
227,0.04140436681578265
226,0.0409526512264249
225,0.040234817425072095
224,0.03988841865047025
223,0.0391905226447564
222,0.03889268967318043
221,0.03854776097968325
220,0.038901689380002255
219,0.038987438973353376
218,0.039342438349606254
217,0.03973592060296875
216,0.04020355467860573
215,0.041468814430263096
214,0.04359527192247182
213,0.045813448969875735
212,0.04803694848536778
211,0.050710603871687535
210,0.05408971342037489
209,0.058366658832111874
208,0.062325035348277776
207,0.0673906271162619
206,0.07293486841563648
205,0.07702101619490016
204,0.08360268643040529
203,0.08865506780083895
202,0.09736881120393877
201,0.11031027860543421
200,0.12600659010868628

Written by spectraltools.write_cary_agilent_csv_spectrum()
