,0_5,1_5,2_5,3_5,4_5,5_5,6_5,7_5,8_5,9_5,10_5,11_5,12_5,13_5,14_5,15_5,16_5,17_5
190,0.469,0.149,0.193,0.527,0.161,0.086,0.415,0.137,0.14,0.477,0.132,0.121,0.417,0.252,0.141,0.422,0.16,0.006
191,0.579,0.216,0.205,0.631,0.209,0.202,0.524,0.216,0.208,0.674,0.218,0.204,0.606,0.226,0.213,0.522,0.234,0.22
192,0.592,0.323,0.31,0.712,0.327,0.312,0.589,0.32,0.312,0.745,0.328,0.322,0.629,0.322,0.325,0.621,0.332,0.338
193,0.54,0.472,0.458,0.646,0.477,0.455,0.572,0.457,0.457,0.656,0.474,0.467,0.532,0.456,0.459,0.645,0.467,0.471
194,0.495,0.575,0.558,0.606,0.567,0.556,0.581,0.546,0.553,0.501,0.566,0.558,0.481,0.549,0.546,0.625,0.545,0.549
195,0.487,0.621,0.581,0.562,0.576,0.576,0.535,0.563,0.565,0.547,0.577,0.567,0.408,0.564,0.552,0.565,0.558,0.558
196,0.5,0.596,0.54,0.497,0.522,0.531,0.515,0.533,0.525,0.478,0.536,0.52,0.392,0.527,0.51,0.564,0.518,0.512
197,0.517,0.55,0.476,0.402,0.455,0.468,0.507,0.472,0.458,0.397,0.472,0.457,0.438,0.464,0.454,0.54,0.462,0.451
198,0.532,0.486,0.405,0.409,0.397,0.399,0.499,0.401,0.389,0.391,0.41,0.394,0.494,0.398,0.387,0.523,0.404,0.385
199,0.519,0.412,0.343,0.446,0.338,0.343,0.52,0.337,0.328,0.443,0.343,0.332,0.507,0.337,0.323,0.451,0.339,0.322
200,0.48,0.344,0.284,0.501,0.283,0.282,0.453,0.277,0.268,0.5,0.286,0.274,0.507,0.283,0.263,0.396,0.28,0.267
201,0.543,0.289,0.231,0.522,0.233,0.227,0.43,0.23,0.222,0.528,0.237,0.224,0.524,0.236,0.216,0.464,0.231,0.22
202,0.758,0.242,0.185,0.548,0.19,0.183,0.542,0.186,0.179,0.571,0.194,0.181,0.636,0.192,0.176,0.592,0.189,0.176
203,0.951,0.201,0.152,0.785,0.158,0.152,0.73,0.152,0.148,0.809,0.159,0.149,0.814,0.159,0.148,0.837,0.158,0.143
204,1.153,0.169,0.129,1.0,0.131,0.127,1.017,0.126,0.124,1.076,0.134,0.128,0.95,0.134,0.123,1.08,0.133,0.117
205,1.261,0.142,0.111,1.211,0.111,0.107,1.175,0.106,0.105,1.25,0.115,0.111,1.196,0.112,0.103,1.301,0.115,0.101
206,1.353,0.126,0.098,1.364,0.096,0.095,1.256,0.094,0.094,1.385,0.102,0.097,1.369,0.099,0.091,1.389,0.101,0.091
207,1.444,0.111,0.083,1.379,0.084,0.087,1.287,0.083,0.083,1.447,0.089,0.084,1.456,0.088,0.079,1.381,0.089,0.079
208,1.505,0.098,0.071,1.394,0.073,0.077,1.322,0.073,0.073,1.496,0.076,0.074,1.393,0.08,0.072,1.394,0.079,0.071
209,1.532,0.088,0.065,1.365,0.067,0.066,1.434,0.064,0.066,1.527,0.068,0.068,1.372,0.072,0.065,1.426,0.072,0.063
210,1.549,0.079,0.059,1.399,0.061,0.059,1.465,0.058,0.057,1.484,0.062,0.065,1.445,0.063,0.059,1.503,0.065,0.058
211,1.542,0.074,0.053,1.536,0.055,0.055,1.433,0.054,0.053,1.486,0.06,0.061,1.548,0.059,0.054,1.563,0.059,0.053
212,1.55,0.068,0.048,1.548,0.051,0.052,1.432,0.05,0.049,1.511,0.056,0.056,1.557,0.053,0.048,1.541,0.052,0.049
213,1.541,0.062,0.044,1.48,0.046,0.048,1.454,0.046,0.046,1.499,0.051,0.05,1.512,0.049,0.044,1.536,0.048,0.044
214,1.49,0.058,0.044,1.411,0.046,0.047,1.523,0.045,0.046,1.506,0.05,0.046,1.497,0.047,0.042,1.52,0.048,0.041
215,1.54,0.054,0.04,1.406,0.045,0.045,1.56,0.044,0.042,1.494,0.047,0.043,1.437,0.044,0.042,1.518,0.046,0.039
216,1.561,0.054,0.037,1.515,0.042,0.04,1.527,0.039,0.038,1.551,0.043,0.04,1.475,0.041,0.039,1.539,0.043,0.035
217,1.656,0.053,0.035,1.575,0.039,0.035,1.549,0.036,0.035,1.584,0.04,0.039,1.488,0.037,0.035,1.537,0.04,0.031
218,1.673,0.051,0.034,1.583,0.035,0.033,1.553,0.032,0.033,1.537,0.039,0.037,1.577,0.034,0.032,1.568,0.038,0.028
219,1.629,0.051,0.035,1.568,0.034,0.034,1.587,0.032,0.033,1.474,0.04,0.036,1.598,0.034,0.029,1.56,0.038,0.029
220,1.522,0.049,0.031,1.463,0.032,0.033,1.557,0.03,0.032,1.451,0.037,0.033,1.533,0.034,0.026,1.527,0.036,0.029
221,1.473,0.048,0.029,1.446,0.03,0.03,1.486,0.028,0.029,1.469,0.035,0.031,1.514,0.033,0.024,1.488,0.033,0.027
222,1.514,0.049,0.028,1.47,0.029,0.03,1.498,0.029,0.027,1.509,0.034,0.031,1.512,0.033,0.025,1.447,0.033,0.027
223,1.553,0.048,0.026,1.532,0.027,0.028,1.551,0.027,0.025,1.562,0.032,0.029,1.569,0.031,0.024,1.509,0.031,0.024
224,1.599,0.048,0.025,1.609,0.026,0.028,1.615,0.026,0.024,1.606,0.032,0.028,1.619,0.03,0.024,1.595,0.03,0.023
225,1.665,0.045,0.024,1.642,0.025,0.025,1.637,0.023,0.024,1.645,0.03,0.027,1.632,0.028,0.022,1.693,0.029,0.02
226,1.747,0.043,0.022,1.713,0.023,0.023,1.685,0.021,0.022,1.704,0.029,0.025,1.69,0.026,0.02,1.744,0.027,0.019
227,1.865,0.044,0.022,1.845,0.023,0.023,1.803,0.021,0.021,1.794,0.029,0.025,1.805,0.025,0.019,1.785,0.027,0.019
228,1.994,0.042,0.02,1.995,0.022,0.022,1.983,0.019,0.02,1.972,0.026,0.023,1.946,0.024,0.018,1.934,0.025,0.017
229,2.13,0.041,0.021,2.139,0.021,0.022,2.16,0.02,0.02,2.138,0.026,0.023,2.12,0.024,0.018,2.11,0.025,0.018
230,2.19,0.04,0.021,2.195,0.02,0.021,2.229,0.019,0.019,2.192,0.024,0.022,2.176,0.024,0.017,2.201,0.024,0.016
231,2.127,0.039,0.019,2.139,0.018,0.02,2.179,0.017,0.017,2.128,0.023,0.02,2.151,0.022,0.016,2.142,0.023,0.015
232,1.998,0.037,0.018,2.007,0.018,0.018,2.012,0.016,0.016,2.019,0.022,0.019,2.014,0.02,0.015,2.013,0.021,0.014
233,1.896,0.034,0.017,1.87,0.017,0.017,1.877,0.014,0.015,1.913,0.021,0.018,1.91,0.019,0.014,1.911,0.019,0.014
234,1.817,0.031,0.016,1.792,0.017,0.017,1.788,0.014,0.015,1.855,0.02,0.018,1.836,0.019,0.014,1.852,0.019,0.013
235,1.744,0.029,0.015,1.744,0.016,0.016,1.724,0.014,0.014,1.763,0.019,0.016,1.754,0.018,0.013,1.759,0.018,0.012
236,1.666,0.027,0.013,1.678,0.014,0.015,1.666,0.013,0.013,1.676,0.017,0.015,1.671,0.016,0.012,1.674,0.017,0.011
237,1.564,0.025,0.012,1.59,0.013,0.014,1.58,0.011,0.012,1.594,0.015,0.014,1.578,0.015,0.011,1.593,0.016,0.01
238,1.474,0.023,0.011,1.493,0.011,0.013,1.503,0.01,0.012,1.496,0.014,0.014,1.499,0.013,0.009,1.512,0.014,0.009
239,1.389,0.02,0.011,1.411,0.011,0.013,1.428,0.009,0.012,1.424,0.014,0.013,1.413,0.013,0.009,1.433,0.014,0.01
240,1.317,0.019,0.011,1.34,0.011,0.012,1.359,0.009,0.011,1.349,0.014,0.013,1.342,0.012,0.009,1.359,0.014,0.009
241,1.258,0.017,0.009,1.285,0.009,0.01,1.3,0.007,0.009,1.29,0.013,0.012,1.288,0.011,0.007,1.297,0.012,0.007
242,1.212,0.017,0.009,1.24,0.009,0.011,1.249,0.008,0.009,1.24,0.013,0.012,1.243,0.011,0.007,1.251,0.013,0.007
243,1.174,0.015,0.009,1.201,0.009,0.011,1.208,0.008,0.01,1.203,0.012,0.012,1.202,0.011,0.008,1.209,0.012,0.007
244,1.137,0.014,0.008,1.159,0.009,0.011,1.166,0.007,0.009,1.165,0.012,0.011,1.164,0.011,0.008,1.171,0.011,0.007
245,1.098,0.013,0.007,1.121,0.009,0.01,1.127,0.006,0.008,1.124,0.011,0.01,1.126,0.009,0.007,1.134,0.01,0.007
246,1.068,0.012,0.006,1.092,0.008,0.009,1.1,0.006,0.007,1.094,0.01,0.009,1.097,0.008,0.006,1.105,0.01,0.006
247,1.053,0.013,0.008,1.075,0.008,0.01,1.083,0.007,0.008,1.078,0.011,0.01,1.08,0.009,0.007,1.086,0.011,0.007
248,1.043,0.013,0.009,1.063,0.009,0.01,1.073,0.008,0.009,1.068,0.012,0.012,1.065,0.011,0.008,1.071,0.012,0.008
249,1.03,0.013,0.008,1.048,0.009,0.01,1.055,0.007,0.008,1.054,0.012,0.012,1.052,0.01,0.008,1.057,0.011,0.008
250,1.014,0.012,0.007,1.031,0.008,0.009,1.037,0.006,0.007,1.037,0.011,0.011,1.038,0.009,0.006,1.042,0.01,0.007
251,1.004,0.011,0.006,1.021,0.007,0.008,1.024,0.006,0.006,1.025,0.009,0.01,1.028,0.008,0.006,1.032,0.009,0.006
252,0.999,0.012,0.006,1.017,0.007,0.008,1.022,0.005,0.005,1.021,0.009,0.01,1.021,0.008,0.006,1.027,0.009,0.005
253,0.998,0.012,0.006,1.017,0.008,0.008,1.025,0.007,0.007,1.023,0.01,0.011,1.018,0.01,0.007,1.025,0.01,0.006
254,0.997,0.011,0.006,1.017,0.009,0.009,1.023,0.007,0.008,1.022,0.01,0.011,1.018,0.01,0.007,1.022,0.011,0.007
255,0.998,0.01,0.007,1.016,0.008,0.01,1.021,0.007,0.007,1.025,0.011,0.01,1.02,0.01,0.006,1.023,0.01,0.007
256,1.005,0.009,0.007,1.024,0.009,0.01,1.028,0.007,0.007,1.033,0.011,0.01,1.028,0.009,0.007,1.029,0.01,0.007
257,1.016,0.009,0.006,1.035,0.009,0.009,1.041,0.006,0.007,1.044,0.01,0.01,1.039,0.008,0.006,1.042,0.009,0.007
258,1.032,0.009,0.006,1.054,0.008,0.008,1.059,0.006,0.006,1.059,0.009,0.009,1.057,0.008,0.006,1.061,0.009,0.006
259,1.055,0.009,0.005,1.075,0.007,0.007,1.079,0.005,0.006,1.079,0.008,0.009,1.081,0.008,0.005,1.084,0.008,0.005
260,1.078,0.009,0.005,1.1,0.007,0.007,1.104,0.005,0.006,1.104,0.009,0.009,1.106,0.008,0.005,1.111,0.009,0.005
261,1.101,0.009,0.006,1.123,0.007,0.007,1.127,0.006,0.007,1.129,0.01,0.01,1.128,0.008,0.006,1.133,0.009,0.005
262,1.123,0.011,0.006,1.144,0.008,0.008,1.146,0.007,0.007,1.15,0.011,0.009,1.148,0.009,0.007,1.153,0.01,0.006
263,1.143,0.012,0.005,1.163,0.007,0.007,1.168,0.006,0.006,1.169,0.01,0.008,1.167,0.007,0.006,1.173,0.009,0.006
264,1.172,0.012,0.005,1.187,0.007,0.007,1.196,0.006,0.007,1.196,0.01,0.008,1.196,0.008,0.005,1.201,0.009,0.006
265,1.205,0.012,0.006,1.221,0.007,0.008,1.233,0.006,0.007,1.232,0.011,0.009,1.231,0.009,0.006,1.237,0.01,0.006
266,1.246,0.012,0.005,1.265,0.008,0.008,1.275,0.006,0.007,1.277,0.01,0.01,1.271,0.009,0.006,1.276,0.01,0.006
267,1.289,0.013,0.006,1.317,0.008,0.008,1.316,0.006,0.007,1.323,0.01,0.01,1.314,0.009,0.005,1.322,0.009,0.006
268,1.33,0.014,0.006,1.358,0.007,0.007,1.358,0.005,0.006,1.361,0.009,0.009,1.355,0.008,0.005,1.366,0.009,0.005
269,1.365,0.015,0.006,1.398,0.007,0.008,1.397,0.006,0.007,1.403,0.01,0.009,1.398,0.009,0.005,1.408,0.009,0.005
270,1.403,0.015,0.005,1.44,0.006,0.007,1.44,0.005,0.006,1.44,0.009,0.008,1.443,0.008,0.005,1.451,0.009,0.005
271,1.453,0.014,0.004,1.485,0.006,0.007,1.488,0.006,0.005,1.491,0.009,0.009,1.497,0.008,0.005,1.496,0.009,0.004
272,1.502,0.014,0.005,1.534,0.007,0.007,1.54,0.006,0.006,1.537,0.01,0.009,1.544,0.009,0.006,1.552,0.01,0.005
273,1.549,0.015,0.005,1.572,0.008,0.008,1.584,0.007,0.007,1.572,0.01,0.009,1.575,0.009,0.006,1.592,0.01,0.005
274,1.582,0.017,0.006,1.598,0.008,0.008,1.613,0.006,0.007,1.604,0.01,0.009,1.601,0.01,0.006,1.613,0.011,0.005
275,1.605,0.018,0.005,1.615,0.008,0.007,1.626,0.005,0.006,1.631,0.01,0.009,1.619,0.009,0.005,1.634,0.01,0.005
276,1.629,0.019,0.005,1.64,0.007,0.007,1.639,0.005,0.006,1.658,0.01,0.008,1.648,0.009,0.005,1.659,0.01,0.005
277,1.641,0.019,0.004,1.677,0.007,0.007,1.663,0.006,0.006,1.678,0.01,0.008,1.675,0.009,0.004,1.678,0.01,0.004
278,1.652,0.019,0.004,1.693,0.007,0.006,1.684,0.007,0.006,1.681,0.01,0.008,1.676,0.009,0.004,1.694,0.01,0.004
279,1.662,0.019,0.005,1.697,0.008,0.006,1.698,0.006,0.006,1.693,0.01,0.008,1.675,0.009,0.004,1.707,0.01,0.005
280,1.673,0.02,0.005,1.702,0.008,0.007,1.713,0.006,0.006,1.711,0.011,0.009,1.682,0.009,0.005,1.728,0.01,0.005
281,1.706,0.019,0.005,1.729,0.008,0.008,1.727,0.007,0.006,1.735,0.01,0.009,1.716,0.009,0.005,1.747,0.01,0.005
282,1.722,0.018,0.005,1.763,0.008,0.008,1.75,0.006,0.006,1.756,0.01,0.009,1.761,0.009,0.005,1.763,0.01,0.005
283,1.731,0.018,0.005,1.771,0.007,0.008,1.761,0.007,0.007,1.766,0.01,0.01,1.775,0.01,0.005,1.771,0.01,0.005
284,1.732,0.018,0.006,1.755,0.007,0.008,1.767,0.007,0.007,1.765,0.011,0.01,1.77,0.01,0.006,1.781,0.011,0.006
285,1.726,0.019,0.006,1.734,0.008,0.008,1.76,0.007,0.007,1.75,0.012,0.01,1.76,0.01,0.007,1.769,0.011,0.006
286,1.717,0.019,0.005,1.722,0.007,0.008,1.753,0.007,0.007,1.731,0.011,0.01,1.745,0.01,0.006,1.746,0.011,0.006
287,1.694,0.019,0.006,1.708,0.008,0.008,1.727,0.006,0.007,1.713,0.011,0.01,1.724,0.01,0.006,1.729,0.011,0.006
288,1.667,0.019,0.005,1.695,0.008,0.008,1.684,0.007,0.007,1.689,0.011,0.01,1.685,0.01,0.006,1.696,0.01,0.006
289,1.63,0.019,0.005,1.655,0.008,0.008,1.65,0.007,0.006,1.653,0.011,0.009,1.653,0.01,0.005,1.668,0.01,0.006
290,1.596,0.017,0.005,1.621,0.007,0.008,1.609,0.007,0.006,1.623,0.01,0.009,1.628,0.009,0.005,1.632,0.01,0.006
291,1.557,0.016,0.005,1.586,0.007,0.007,1.587,0.007,0.006,1.592,0.01,0.009,1.596,0.008,0.005,1.599,0.01,0.005
292,1.524,0.017,0.005,1.546,0.008,0.007,1.55,0.006,0.006,1.561,0.01,0.009,1.557,0.009,0.005,1.567,0.01,0.005
293,1.479,0.018,0.005,1.51,0.008,0.008,1.506,0.007,0.006,1.517,0.01,0.01,1.508,0.009,0.005,1.522,0.01,0.005
294,1.435,0.017,0.005,1.462,0.008,0.008,1.464,0.006,0.006,1.468,0.011,0.01,1.46,0.009,0.006,1.478,0.01,0.006
295,1.393,0.016,0.006,1.42,0.008,0.008,1.415,0.007,0.006,1.427,0.01,0.01,1.417,0.009,0.006,1.429,0.01,0.006
296,1.35,0.014,0.005,1.373,0.007,0.008,1.37,0.006,0.007,1.381,0.01,0.01,1.373,0.008,0.005,1.378,0.01,0.005
297,1.302,0.014,0.005,1.326,0.007,0.008,1.323,0.006,0.007,1.337,0.009,0.01,1.326,0.008,0.005,1.332,0.01,0.005
298,1.246,0.014,0.005,1.274,0.006,0.008,1.272,0.005,0.007,1.283,0.009,0.009,1.275,0.008,0.005,1.28,0.01,0.005
299,1.194,0.014,0.005,1.218,0.007,0.008,1.222,0.005,0.006,1.224,0.01,0.01,1.218,0.009,0.006,1.229,0.01,0.005
300,1.138,0.014,0.006,1.161,0.008,0.008,1.168,0.006,0.007,1.165,0.01,0.009,1.159,0.009,0.006,1.17,0.01,0.005
301,1.084,0.014,0.005,1.104,0.008,0.008,1.111,0.006,0.008,1.108,0.01,0.009,1.104,0.008,0.006,1.109,0.009,0.006
302,1.036,0.013,0.006,1.054,0.008,0.009,1.059,0.007,0.008,1.059,0.01,0.009,1.056,0.008,0.006,1.057,0.01,0.007
303,0.99,0.011,0.006,1.007,0.008,0.01,1.01,0.007,0.008,1.014,0.01,0.01,1.01,0.008,0.006,1.01,0.01,0.007
304,0.951,0.01,0.006,0.964,0.009,0.01,0.971,0.008,0.007,0.97,0.011,0.01,0.969,0.009,0.007,0.97,0.01,0.008
305,0.912,0.008,0.005,0.923,0.008,0.009,0.933,0.007,0.006,0.928,0.01,0.009,0.931,0.009,0.006,0.932,0.009,0.007
306,0.879,0.007,0.004,0.887,0.008,0.009,0.897,0.006,0.006,0.894,0.009,0.009,0.898,0.008,0.006,0.899,0.009,0.006
307,0.852,0.008,0.004,0.861,0.007,0.008,0.869,0.006,0.006,0.868,0.009,0.009,0.87,0.008,0.006,0.871,0.009,0.007
308,0.827,0.008,0.005,0.841,0.007,0.009,0.844,0.006,0.007,0.846,0.009,0.009,0.845,0.008,0.007,0.846,0.01,0.007
309,0.807,0.008,0.008,0.823,0.008,0.01,0.824,0.007,0.008,0.827,0.011,0.01,0.822,0.009,0.008,0.828,0.011,0.008
310,0.79,0.008,0.008,0.808,0.009,0.011,0.807,0.007,0.008,0.809,0.012,0.011,0.806,0.01,0.007,0.812,0.011,0.008
311,0.779,0.009,0.008,0.795,0.01,0.012,0.795,0.008,0.009,0.795,0.012,0.011,0.794,0.01,0.008,0.801,0.011,0.008
312,0.769,0.009,0.007,0.785,0.009,0.01,0.788,0.007,0.008,0.784,0.01,0.011,0.786,0.01,0.007,0.789,0.011,0.008
313,0.761,0.008,0.005,0.775,0.008,0.008,0.781,0.005,0.007,0.778,0.009,0.009,0.778,0.008,0.006,0.781,0.009,0.006
314,0.758,0.007,0.005,0.77,0.007,0.007,0.778,0.005,0.007,0.776,0.009,0.009,0.775,0.006,0.006,0.778,0.009,0.005
315,0.757,0.006,0.005,0.769,0.007,0.007,0.775,0.005,0.006,0.775,0.008,0.008,0.775,0.005,0.004,0.78,0.008,0.004
316,0.761,0.007,0.005,0.773,0.008,0.007,0.778,0.006,0.006,0.777,0.008,0.009,0.778,0.006,0.005,0.782,0.008,0.006
317,0.763,0.006,0.005,0.777,0.007,0.007,0.781,0.005,0.005,0.777,0.008,0.008,0.779,0.006,0.004,0.782,0.008,0.006
318,0.767,0.006,0.004,0.779,0.007,0.007,0.787,0.005,0.006,0.783,0.008,0.007,0.783,0.006,0.004,0.784,0.008,0.006
319,0.773,0.006,0.003,0.784,0.006,0.008,0.792,0.005,0.005,0.791,0.007,0.007,0.788,0.006,0.005,0.79,0.007,0.005
320,0.779,0.006,0.004,0.788,0.007,0.008,0.796,0.005,0.006,0.797,0.008,0.008,0.792,0.006,0.005,0.797,0.009,0.005
321,0.785,0.008,0.005,0.796,0.009,0.008,0.803,0.006,0.006,0.804,0.008,0.01,0.798,0.007,0.005,0.805,0.01,0.005
322,0.789,0.008,0.005,0.804,0.008,0.008,0.809,0.006,0.006,0.81,0.008,0.01,0.804,0.007,0.005,0.813,0.009,0.005
323,0.798,0.008,0.004,0.813,0.007,0.007,0.817,0.006,0.006,0.819,0.008,0.009,0.814,0.007,0.005,0.82,0.009,0.006
324,0.808,0.006,0.003,0.824,0.006,0.007,0.828,0.005,0.006,0.83,0.008,0.008,0.823,0.006,0.004,0.829,0.008,0.006
325,0.82,0.006,0.004,0.833,0.007,0.007,0.838,0.006,0.006,0.839,0.008,0.009,0.832,0.006,0.005,0.84,0.008,0.006
326,0.829,0.007,0.005,0.84,0.008,0.008,0.847,0.006,0.007,0.844,0.009,0.011,0.841,0.008,0.006,0.849,0.009,0.007
327,0.834,0.008,0.006,0.845,0.008,0.008,0.852,0.005,0.007,0.849,0.009,0.01,0.85,0.008,0.006,0.857,0.009,0.007
328,0.84,0.008,0.005,0.85,0.007,0.007,0.857,0.004,0.007,0.856,0.008,0.008,0.857,0.008,0.005,0.86,0.008,0.006
329,0.843,0.007,0.005,0.856,0.006,0.007,0.863,0.004,0.007,0.866,0.008,0.008,0.86,0.007,0.005,0.863,0.008,0.005
330,0.848,0.007,0.005,0.864,0.006,0.008,0.869,0.006,0.007,0.873,0.009,0.009,0.865,0.007,0.006,0.867,0.008,0.005
331,0.853,0.008,0.005,0.871,0.007,0.008,0.875,0.006,0.008,0.875,0.01,0.01,0.868,0.008,0.006,0.872,0.008,0.007
332,0.857,0.009,0.005,0.875,0.008,0.009,0.879,0.007,0.007,0.878,0.01,0.01,0.876,0.008,0.006,0.879,0.009,0.007
333,0.861,0.007,0.002,0.875,0.006,0.006,0.882,0.004,0.006,0.88,0.008,0.008,0.883,0.006,0.004,0.884,0.007,0.005
334,0.865,0.005,0.002,0.878,0.005,0.006,0.886,0.004,0.005,0.885,0.007,0.008,0.885,0.005,0.004,0.887,0.007,0.003
335,0.869,0.006,0.003,0.883,0.006,0.006,0.888,0.004,0.005,0.89,0.008,0.007,0.893,0.006,0.004,0.892,0.008,0.003
336,0.87,0.007,0.004,0.888,0.007,0.008,0.89,0.005,0.006,0.893,0.009,0.009,0.894,0.007,0.004,0.895,0.009,0.005
337,0.868,0.008,0.005,0.89,0.007,0.009,0.891,0.005,0.007,0.894,0.009,0.01,0.894,0.007,0.006,0.896,0.01,0.006
338,0.866,0.006,0.004,0.887,0.006,0.007,0.891,0.005,0.005,0.894,0.008,0.008,0.888,0.006,0.005,0.894,0.008,0.005
339,0.867,0.006,0.003,0.886,0.005,0.006,0.891,0.005,0.005,0.89,0.008,0.007,0.884,0.005,0.004,0.893,0.008,0.004
340,0.868,0.006,0.004,0.883,0.006,0.006,0.889,0.005,0.006,0.887,0.009,0.007,0.885,0.006,0.004,0.892,0.008,0.005
341,0.864,0.007,0.005,0.881,0.006,0.007,0.886,0.005,0.007,0.883,0.009,0.009,0.882,0.008,0.005,0.888,0.009,0.005
342,0.861,0.007,0.005,0.877,0.006,0.008,0.883,0.006,0.007,0.881,0.008,0.01,0.88,0.009,0.006,0.887,0.009,0.006
343,0.853,0.006,0.005,0.87,0.006,0.007,0.876,0.006,0.005,0.877,0.007,0.008,0.871,0.008,0.006,0.884,0.008,0.005
344,0.846,0.005,0.004,0.864,0.005,0.006,0.869,0.005,0.004,0.869,0.006,0.007,0.865,0.006,0.005,0.882,0.007,0.004
345,0.84,0.004,0.003,0.856,0.005,0.006,0.862,0.003,0.004,0.861,0.006,0.007,0.86,0.005,0.004,0.871,0.007,0.003
346,0.831,0.005,0.003,0.847,0.005,0.006,0.855,0.004,0.004,0.854,0.007,0.007,0.853,0.006,0.004,0.861,0.008,0.003
347,0.824,0.005,0.004,0.836,0.005,0.007,0.85,0.005,0.005,0.846,0.007,0.009,0.842,0.007,0.005,0.853,0.008,0.004
348,0.814,0.005,0.004,0.827,0.006,0.006,0.835,0.005,0.005,0.835,0.006,0.008,0.829,0.007,0.006,0.837,0.007,0.004
349,0.801,0.004,0.003,0.816,0.004,0.006,0.821,0.003,0.004,0.82,0.005,0.007,0.817,0.005,0.005,0.822,0.006,0.004
350,0.791,0.004,0.002,0.803,0.004,0.005,0.81,0.002,0.004,0.805,0.005,0.006,0.806,0.005,0.004,0.808,0.005,0.004
351,0.778,0.004,0.002,0.787,0.004,0.005,0.798,0.002,0.004,0.791,0.007,0.007,0.795,0.005,0.003,0.797,0.005,0.004
352,0.765,0.005,0.003,0.774,0.004,0.006,0.787,0.003,0.005,0.778,0.008,0.008,0.781,0.006,0.003,0.787,0.006,0.004
353,0.751,0.006,0.003,0.763,0.005,0.006,0.771,0.003,0.005,0.764,0.008,0.008,0.767,0.006,0.003,0.77,0.007,0.004
354,0.734,0.004,0.002,0.75,0.004,0.005,0.753,0.002,0.004,0.752,0.006,0.006,0.751,0.004,0.003,0.755,0.006,0.003
355,0.717,0.002,0.002,0.734,0.004,0.005,0.737,0.003,0.003,0.74,0.006,0.007,0.733,0.004,0.003,0.739,0.006,0.003
356,0.702,0.001,0.003,0.717,0.003,0.006,0.722,0.003,0.003,0.725,0.006,0.006,0.72,0.004,0.003,0.723,0.006,0.003
357,0.688,0.002,0.003,0.702,0.004,0.006,0.71,0.003,0.005,0.709,0.006,0.007,0.706,0.005,0.004,0.709,0.006,0.003
358,0.674,0.003,0.004,0.687,0.004,0.005,0.696,0.004,0.005,0.691,0.007,0.007,0.693,0.005,0.004,0.695,0.007,0.003
359,0.66,0.002,0.003,0.672,0.005,0.006,0.678,0.004,0.005,0.677,0.007,0.007,0.678,0.005,0.004,0.681,0.007,0.004
360,0.644,0.003,0.005,0.656,0.006,0.007,0.659,0.005,0.005,0.663,0.008,0.008,0.659,0.006,0.005,0.664,0.008,0.004
361,0.626,0.003,0.004,0.638,0.005,0.007,0.642,0.005,0.005,0.644,0.007,0.007,0.64,0.005,0.004,0.646,0.007,0.004
362,0.609,0.003,0.005,0.62,0.005,0.006,0.625,0.004,0.005,0.627,0.006,0.007,0.623,0.005,0.004,0.629,0.007,0.004
363,0.592,0.002,0.004,0.604,0.005,0.006,0.609,0.003,0.005,0.609,0.006,0.007,0.606,0.005,0.003,0.612,0.006,0.004
364,0.575,0.001,0.003,0.589,0.004,0.005,0.592,0.003,0.004,0.591,0.006,0.006,0.589,0.004,0.002,0.594,0.005,0.004
365,0.558,0.001,0.003,0.572,0.004,0.005,0.573,0.003,0.004,0.573,0.006,0.006,0.571,0.004,0.003,0.577,0.005,0.004
366,0.541,0.002,0.003,0.553,0.004,0.004,0.556,0.003,0.004,0.555,0.006,0.007,0.553,0.004,0.004,0.559,0.006,0.004
367,0.526,0.002,0.004,0.535,0.005,0.005,0.539,0.004,0.005,0.539,0.007,0.007,0.536,0.005,0.005,0.543,0.007,0.005
368,0.51,0.003,0.004,0.519,0.007,0.007,0.524,0.004,0.006,0.524,0.007,0.008,0.521,0.006,0.005,0.526,0.007,0.005
369,0.493,0.002,0.003,0.501,0.006,0.006,0.505,0.004,0.006,0.505,0.007,0.007,0.505,0.006,0.004,0.508,0.007,0.004
370,0.476,0.001,0.002,0.484,0.005,0.005,0.488,0.004,0.005,0.487,0.006,0.006,0.488,0.005,0.003,0.491,0.007,0.003
371,0.46,0.001,0.002,0.467,0.005,0.005,0.471,0.004,0.003,0.471,0.005,0.006,0.472,0.004,0.003,0.476,0.006,0.002
372,0.445,0.001,0.002,0.451,0.004,0.005,0.455,0.004,0.003,0.456,0.005,0.007,0.455,0.004,0.003,0.46,0.006,0.003
373,0.43,0.001,0.003,0.435,0.004,0.005,0.44,0.004,0.003,0.441,0.004,0.006,0.439,0.003,0.003,0.444,0.005,0.003
374,0.414,0.001,0.002,0.421,0.004,0.006,0.425,0.004,0.004,0.426,0.004,0.007,0.423,0.004,0.003,0.428,0.005,0.003
375,0.401,0.001,0.003,0.407,0.005,0.006,0.412,0.004,0.004,0.412,0.005,0.007,0.408,0.004,0.004,0.414,0.006,0.003
376,0.386,0.0,0.003,0.393,0.005,0.006,0.397,0.003,0.003,0.397,0.005,0.007,0.395,0.004,0.004,0.4,0.005,0.003
377,0.373,0.0,0.003,0.378,0.005,0.005,0.384,0.003,0.004,0.383,0.006,0.007,0.38,0.004,0.004,0.386,0.006,0.004
378,0.36,0.0,0.003,0.365,0.004,0.006,0.369,0.003,0.004,0.369,0.006,0.006,0.366,0.004,0.004,0.371,0.005,0.003
379,0.347,0.0,0.004,0.353,0.006,0.007,0.356,0.004,0.005,0.357,0.007,0.008,0.353,0.005,0.005,0.358,0.007,0.004
380,0.333,0.0,0.003,0.338,0.006,0.006,0.342,0.003,0.005,0.344,0.006,0.008,0.341,0.004,0.004,0.344,0.007,0.003
381,0.319,-0.001,0.002,0.324,0.005,0.005,0.329,0.003,0.005,0.331,0.005,0.008,0.327,0.004,0.004,0.331,0.006,0.003
382,0.307,-0.001,0.002,0.312,0.005,0.005,0.316,0.003,0.005,0.317,0.005,0.007,0.313,0.004,0.004,0.319,0.006,0.004
383,0.294,-0.001,0.001,0.3,0.005,0.005,0.303,0.002,0.004,0.302,0.004,0.006,0.299,0.003,0.003,0.305,0.005,0.003
384,0.281,-0.002,0.001,0.287,0.004,0.004,0.29,0.002,0.002,0.288,0.004,0.006,0.286,0.002,0.002,0.292,0.004,0.002
385,0.268,-0.003,0.001,0.273,0.003,0.003,0.276,0.001,0.001,0.276,0.003,0.005,0.274,0.002,0.001,0.279,0.003,0.002
386,0.257,-0.003,0.001,0.26,0.003,0.003,0.265,0.001,0.001,0.265,0.003,0.006,0.262,0.002,0.001,0.266,0.003,0.002
387,0.247,-0.003,0.001,0.249,0.003,0.003,0.253,0.002,0.002,0.253,0.004,0.006,0.251,0.002,0.002,0.255,0.004,0.002
388,0.236,-0.002,0.0,0.238,0.002,0.004,0.241,0.002,0.003,0.241,0.004,0.005,0.24,0.002,0.002,0.244,0.004,0.002
389,0.223,-0.003,-0.001,0.225,0.001,0.004,0.229,0.001,0.003,0.229,0.004,0.004,0.228,0.001,0.002,0.232,0.003,0.002
390,0.211,-0.003,0.0,0.214,0.002,0.004,0.217,0.002,0.003,0.218,0.003,0.005,0.216,0.001,0.002,0.22,0.003,0.002
391,0.201,-0.003,0.001,0.204,0.003,0.004,0.207,0.002,0.003,0.207,0.003,0.006,0.206,0.003,0.002,0.21,0.003,0.003
392,0.191,-0.003,0.002,0.194,0.004,0.005,0.198,0.002,0.004,0.197,0.004,0.006,0.195,0.003,0.003,0.199,0.004,0.002
393,0.182,-0.003,0.003,0.184,0.004,0.005,0.189,0.002,0.004,0.188,0.005,0.006,0.185,0.003,0.003,0.19,0.004,0.002
394,0.173,-0.003,0.003,0.175,0.003,0.005,0.178,0.001,0.004,0.178,0.005,0.006,0.176,0.003,0.003,0.18,0.004,0.002
395,0.163,-0.003,0.002,0.166,0.003,0.004,0.169,0.002,0.003,0.168,0.005,0.006,0.167,0.003,0.003,0.17,0.004,0.002
396,0.155,-0.003,0.002,0.158,0.004,0.004,0.161,0.002,0.004,0.159,0.005,0.006,0.158,0.003,0.003,0.162,0.005,0.003
397,0.147,-0.002,0.002,0.151,0.005,0.006,0.153,0.003,0.004,0.152,0.005,0.006,0.149,0.004,0.003,0.154,0.005,0.004
398,0.14,-0.001,0.003,0.142,0.005,0.007,0.146,0.003,0.005,0.144,0.006,0.008,0.142,0.004,0.004,0.146,0.006,0.004
399,0.133,0.001,0.004,0.135,0.005,0.007,0.138,0.003,0.005,0.138,0.007,0.009,0.134,0.005,0.005,0.139,0.007,0.004
400,0.127,0.001,0.003,0.128,0.005,0.007,0.131,0.004,0.006,0.131,0.007,0.009,0.128,0.005,0.005,0.133,0.007,0.004
401,0.12,0.0,0.003,0.121,0.004,0.006,0.124,0.004,0.005,0.125,0.007,0.008,0.122,0.005,0.004,0.126,0.006,0.004
402,0.114,-0.002,0.002,0.115,0.004,0.006,0.117,0.003,0.004,0.119,0.005,0.007,0.115,0.003,0.003,0.12,0.005,0.003
403,0.107,-0.003,0.002,0.108,0.004,0.006,0.111,0.002,0.004,0.112,0.004,0.005,0.108,0.003,0.003,0.113,0.004,0.003
404,0.101,-0.003,0.003,0.103,0.004,0.006,0.105,0.002,0.003,0.106,0.004,0.005,0.103,0.003,0.003,0.107,0.004,0.003
405,0.097,-0.002,0.003,0.099,0.004,0.005,0.1,0.002,0.004,0.101,0.004,0.006,0.099,0.004,0.003,0.102,0.005,0.003
406,0.093,-0.001,0.003,0.095,0.004,0.006,0.096,0.003,0.005,0.097,0.005,0.008,0.094,0.004,0.004,0.098,0.005,0.004
407,0.09,0.001,0.004,0.091,0.004,0.007,0.092,0.004,0.004,0.093,0.006,0.009,0.09,0.005,0.005,0.094,0.005,0.004
408,0.086,0.002,0.005,0.087,0.006,0.008,0.089,0.005,0.004,0.09,0.007,0.009,0.086,0.005,0.006,0.091,0.007,0.006
409,0.081,0.0,0.005,0.083,0.006,0.007,0.085,0.004,0.004,0.085,0.007,0.008,0.082,0.005,0.006,0.086,0.007,0.005
410,0.077,-0.001,0.004,0.079,0.005,0.006,0.08,0.004,0.005,0.081,0.006,0.007,0.078,0.004,0.005,0.083,0.007,0.005
411,0.072,-0.002,0.002,0.075,0.003,0.005,0.075,0.003,0.004,0.076,0.005,0.006,0.073,0.004,0.004,0.078,0.005,0.003
412,0.069,-0.002,0.003,0.072,0.003,0.005,0.071,0.004,0.005,0.072,0.005,0.007,0.07,0.004,0.003,0.075,0.004,0.003
413,0.066,-0.001,0.003,0.068,0.004,0.006,0.069,0.004,0.004,0.069,0.005,0.008,0.067,0.004,0.003,0.072,0.004,0.004
414,0.063,-0.001,0.003,0.065,0.005,0.006,0.067,0.004,0.004,0.067,0.006,0.008,0.064,0.003,0.004,0.069,0.005,0.005
415,0.06,-0.002,0.003,0.062,0.005,0.006,0.063,0.003,0.005,0.063,0.005,0.007,0.061,0.004,0.004,0.066,0.006,0.004
416,0.057,-0.002,0.003,0.059,0.005,0.007,0.06,0.002,0.006,0.06,0.005,0.007,0.058,0.004,0.004,0.063,0.006,0.003
417,0.055,0.0,0.003,0.057,0.005,0.007,0.058,0.003,0.006,0.058,0.006,0.008,0.056,0.004,0.005,0.06,0.006,0.003
418,0.054,0.0,0.004,0.054,0.005,0.007,0.056,0.004,0.005,0.056,0.006,0.008,0.053,0.004,0.005,0.057,0.006,0.004
419,0.052,0.0,0.005,0.052,0.006,0.007,0.053,0.004,0.005,0.052,0.006,0.008,0.051,0.005,0.005,0.055,0.006,0.005
420,0.05,0.0,0.005,0.049,0.006,0.006,0.05,0.004,0.006,0.05,0.007,0.007,0.048,0.005,0.004,0.052,0.006,0.005
421,0.048,0.001,0.006,0.048,0.006,0.006,0.049,0.004,0.006,0.048,0.006,0.008,0.046,0.005,0.004,0.051,0.006,0.005
422,0.046,0.001,0.005,0.047,0.005,0.006,0.048,0.004,0.006,0.047,0.006,0.008,0.045,0.005,0.005,0.05,0.006,0.004
423,0.044,0.001,0.005,0.044,0.005,0.006,0.046,0.004,0.004,0.045,0.005,0.008,0.042,0.004,0.005,0.048,0.005,0.005
424,0.041,0.002,0.004,0.042,0.005,0.007,0.044,0.005,0.004,0.044,0.006,0.008,0.041,0.004,0.005,0.046,0.005,0.006
425,0.039,0.002,0.003,0.04,0.004,0.006,0.042,0.003,0.005,0.041,0.006,0.007,0.039,0.004,0.004,0.044,0.005,0.005
426,0.038,0.002,0.005,0.039,0.005,0.007,0.04,0.004,0.006,0.04,0.006,0.008,0.037,0.005,0.005,0.042,0.006,0.006
427,0.036,0.001,0.005,0.036,0.006,0.008,0.038,0.005,0.007,0.038,0.007,0.009,0.035,0.006,0.006,0.039,0.007,0.006
428,0.034,0.001,0.005,0.033,0.006,0.008,0.036,0.005,0.006,0.036,0.007,0.008,0.033,0.006,0.005,0.038,0.007,0.006
429,0.031,-0.001,0.004,0.031,0.005,0.007,0.033,0.003,0.005,0.033,0.006,0.007,0.03,0.004,0.004,0.035,0.005,0.004
430,0.029,-0.002,0.003,0.029,0.003,0.005,0.031,0.002,0.003,0.031,0.006,0.006,0.028,0.004,0.003,0.034,0.004,0.003
431,0.03,0.0,0.004,0.03,0.005,0.006,0.031,0.004,0.005,0.031,0.006,0.007,0.029,0.005,0.005,0.034,0.005,0.005
432,0.03,0.002,0.006,0.03,0.007,0.008,0.032,0.006,0.007,0.032,0.008,0.009,0.029,0.007,0.007,0.034,0.008,0.007
433,0.03,0.004,0.007,0.03,0.008,0.009,0.032,0.006,0.008,0.032,0.009,0.011,0.029,0.008,0.008,0.034,0.009,0.007
434,0.027,0.003,0.006,0.028,0.007,0.008,0.03,0.006,0.007,0.03,0.008,0.011,0.027,0.006,0.006,0.031,0.008,0.006
435,0.025,0.002,0.005,0.025,0.006,0.007,0.027,0.004,0.006,0.027,0.007,0.009,0.024,0.005,0.005,0.029,0.006,0.005
436,0.024,0.001,0.004,0.023,0.005,0.007,0.026,0.004,0.006,0.025,0.007,0.009,0.022,0.005,0.005,0.027,0.006,0.005
437,0.024,0.002,0.005,0.023,0.005,0.008,0.026,0.005,0.007,0.025,0.008,0.01,0.023,0.006,0.006,0.028,0.006,0.006
438,0.024,0.002,0.006,0.022,0.007,0.008,0.026,0.005,0.007,0.025,0.008,0.01,0.023,0.007,0.007,0.027,0.007,0.006
439,0.023,0.003,0.006,0.022,0.007,0.008,0.024,0.006,0.007,0.024,0.008,0.009,0.022,0.006,0.007,0.025,0.008,0.006
440,0.021,0.003,0.006,0.021,0.008,0.008,0.023,0.006,0.006,0.023,0.008,0.008,0.02,0.006,0.006,0.024,0.008,0.006
441,0.021,0.003,0.006,0.021,0.007,0.009,0.023,0.006,0.007,0.022,0.008,0.009,0.019,0.006,0.007,0.024,0.009,0.006
442,0.021,0.004,0.006,0.021,0.008,0.009,0.023,0.007,0.008,0.022,0.009,0.011,0.02,0.007,0.008,0.025,0.01,0.007
443,0.021,0.005,0.006,0.021,0.009,0.01,0.023,0.008,0.008,0.022,0.01,0.012,0.02,0.008,0.008,0.025,0.009,0.008
444,0.021,0.005,0.006,0.02,0.008,0.01,0.022,0.008,0.009,0.021,0.01,0.011,0.019,0.007,0.008,0.024,0.008,0.008
445,0.021,0.006,0.008,0.02,0.009,0.01,0.021,0.008,0.01,0.021,0.011,0.012,0.019,0.009,0.009,0.024,0.009,0.009
446,0.021,0.008,0.01,0.021,0.01,0.012,0.021,0.008,0.011,0.021,0.011,0.013,0.019,0.01,0.01,0.024,0.01,0.01
447,0.02,0.008,0.01,0.021,0.01,0.012,0.021,0.009,0.011,0.022,0.011,0.013,0.019,0.011,0.011,0.024,0.011,0.01
448,0.02,0.008,0.009,0.021,0.01,0.011,0.021,0.009,0.01,0.021,0.01,0.012,0.018,0.009,0.01,0.023,0.011,0.009
449,0.018,0.006,0.008,0.018,0.009,0.009,0.019,0.007,0.009,0.019,0.009,0.011,0.016,0.008,0.008,0.021,0.01,0.007
450,0.018,0.006,0.007,0.017,0.009,0.01,0.019,0.007,0.008,0.018,0.009,0.011,0.015,0.008,0.008,0.021,0.009,0.007
451,0.017,0.006,0.006,0.016,0.008,0.01,0.018,0.006,0.007,0.017,0.009,0.01,0.015,0.008,0.008,0.02,0.009,0.007
452,0.017,0.006,0.006,0.016,0.007,0.01,0.017,0.006,0.006,0.017,0.009,0.01,0.014,0.008,0.007,0.019,0.009,0.007
453,0.017,0.006,0.007,0.015,0.009,0.01,0.017,0.007,0.008,0.018,0.009,0.01,0.015,0.008,0.007,0.019,0.01,0.008
454,0.017,0.008,0.008,0.016,0.01,0.011,0.019,0.008,0.01,0.018,0.011,0.012,0.015,0.009,0.009,0.02,0.011,0.01
455,0.018,0.01,0.009,0.017,0.011,0.012,0.02,0.009,0.011,0.019,0.012,0.014,0.016,0.011,0.01,0.021,0.012,0.011
456,0.015,0.008,0.007,0.015,0.009,0.011,0.018,0.006,0.008,0.017,0.01,0.012,0.013,0.008,0.009,0.019,0.01,0.008
457,0.014,0.007,0.007,0.015,0.008,0.011,0.017,0.006,0.009,0.016,0.009,0.012,0.012,0.008,0.008,0.019,0.009,0.006
458,0.013,0.005,0.005,0.013,0.007,0.009,0.015,0.005,0.007,0.014,0.007,0.009,0.011,0.006,0.006,0.016,0.007,0.004
459,0.015,0.007,0.007,0.015,0.008,0.01,0.016,0.007,0.009,0.014,0.009,0.011,0.013,0.009,0.008,0.017,0.009,0.007
460,0.017,0.01,0.01,0.017,0.011,0.012,0.018,0.01,0.011,0.017,0.012,0.013,0.014,0.011,0.011,0.019,0.011,0.009
461,0.018,0.012,0.012,0.018,0.012,0.014,0.019,0.012,0.012,0.018,0.014,0.016,0.016,0.012,0.012,0.02,0.013,0.012
462,0.017,0.012,0.011,0.017,0.012,0.014,0.018,0.011,0.012,0.019,0.014,0.016,0.016,0.012,0.012,0.02,0.013,0.012
463,0.017,0.012,0.01,0.017,0.012,0.013,0.018,0.011,0.012,0.018,0.013,0.015,0.015,0.011,0.011,0.02,0.012,0.012
464,0.018,0.012,0.01,0.017,0.012,0.012,0.018,0.011,0.012,0.018,0.013,0.014,0.015,0.011,0.011,0.02,0.013,0.012
465,0.017,0.011,0.01,0.016,0.011,0.012,0.017,0.011,0.011,0.017,0.012,0.014,0.014,0.011,0.011,0.019,0.013,0.012
466,0.016,0.01,0.01,0.015,0.01,0.012,0.016,0.01,0.011,0.016,0.012,0.013,0.014,0.01,0.011,0.018,0.011,0.011
467,0.014,0.01,0.009,0.014,0.009,0.012,0.015,0.008,0.01,0.015,0.012,0.013,0.012,0.01,0.009,0.019,0.01,0.01
468,0.016,0.012,0.011,0.015,0.011,0.013,0.017,0.011,0.012,0.016,0.013,0.013,0.013,0.01,0.01,0.02,0.011,0.01
469,0.016,0.012,0.01,0.015,0.011,0.014,0.017,0.011,0.011,0.016,0.011,0.013,0.013,0.01,0.011,0.019,0.011,0.01
470,0.015,0.013,0.009,0.015,0.011,0.013,0.017,0.011,0.01,0.016,0.011,0.013,0.013,0.009,0.011,0.017,0.011,0.01
471,0.015,0.014,0.009,0.016,0.011,0.013,0.017,0.011,0.011,0.016,0.012,0.013,0.014,0.01,0.012,0.018,0.011,0.011
472,0.016,0.014,0.01,0.016,0.012,0.013,0.017,0.011,0.011,0.017,0.012,0.014,0.015,0.011,0.012,0.018,0.012,0.011
473,0.017,0.015,0.012,0.017,0.014,0.014,0.019,0.013,0.013,0.018,0.014,0.016,0.016,0.013,0.013,0.02,0.014,0.012
474,0.017,0.015,0.013,0.017,0.015,0.016,0.019,0.013,0.014,0.019,0.015,0.017,0.016,0.013,0.014,0.02,0.015,0.014
475,0.016,0.015,0.012,0.015,0.014,0.015,0.018,0.012,0.013,0.017,0.014,0.016,0.014,0.012,0.012,0.019,0.014,0.013
476,0.015,0.013,0.01,0.013,0.012,0.013,0.016,0.009,0.011,0.013,0.011,0.014,0.012,0.01,0.011,0.017,0.011,0.011
477,0.015,0.012,0.01,0.013,0.011,0.012,0.016,0.008,0.011,0.013,0.011,0.013,0.012,0.01,0.011,0.015,0.011,0.01
478,0.014,0.013,0.011,0.015,0.012,0.014,0.017,0.01,0.011,0.014,0.012,0.014,0.014,0.011,0.012,0.017,0.012,0.011
479,0.016,0.015,0.013,0.017,0.014,0.016,0.017,0.012,0.013,0.018,0.015,0.016,0.016,0.013,0.014,0.02,0.014,0.014
480,0.016,0.015,0.013,0.016,0.014,0.016,0.018,0.013,0.014,0.018,0.015,0.017,0.015,0.014,0.014,0.02,0.015,0.014
481,0.016,0.016,0.013,0.016,0.014,0.015,0.018,0.013,0.014,0.017,0.015,0.016,0.014,0.013,0.013,0.02,0.015,0.013
482,0.015,0.016,0.013,0.015,0.013,0.015,0.018,0.013,0.014,0.017,0.015,0.017,0.014,0.013,0.013,0.019,0.015,0.013
483,0.015,0.014,0.012,0.014,0.013,0.015,0.017,0.012,0.014,0.017,0.015,0.016,0.014,0.013,0.013,0.018,0.014,0.013
484,0.016,0.015,0.014,0.015,0.014,0.016,0.018,0.013,0.015,0.017,0.015,0.018,0.014,0.014,0.014,0.019,0.015,0.014
485,0.017,0.017,0.015,0.016,0.015,0.016,0.018,0.013,0.015,0.018,0.016,0.018,0.015,0.014,0.014,0.02,0.015,0.014
486,0.018,0.019,0.015,0.017,0.015,0.017,0.019,0.014,0.016,0.019,0.017,0.019,0.016,0.015,0.015,0.021,0.016,0.015
487,0.018,0.019,0.015,0.017,0.015,0.017,0.019,0.015,0.015,0.018,0.017,0.018,0.015,0.015,0.015,0.02,0.016,0.015
488,0.017,0.019,0.015,0.017,0.015,0.017,0.019,0.015,0.015,0.018,0.016,0.018,0.015,0.015,0.015,0.02,0.016,0.015
489,0.017,0.02,0.015,0.017,0.016,0.017,0.019,0.015,0.016,0.018,0.016,0.018,0.015,0.015,0.015,0.02,0.017,0.015
490,0.018,0.021,0.015,0.017,0.016,0.017,0.019,0.015,0.016,0.019,0.016,0.018,0.016,0.015,0.016,0.021,0.016,0.015
491,0.018,0.021,0.014,0.017,0.015,0.017,0.019,0.015,0.015,0.018,0.016,0.018,0.016,0.015,0.016,0.02,0.016,0.015
492,0.018,0.02,0.013,0.015,0.015,0.016,0.018,0.014,0.014,0.017,0.016,0.018,0.015,0.014,0.016,0.02,0.016,0.014
493,0.018,0.023,0.014,0.016,0.015,0.016,0.018,0.015,0.015,0.018,0.017,0.019,0.015,0.015,0.016,0.021,0.017,0.015
494,0.019,0.024,0.015,0.017,0.017,0.017,0.02,0.016,0.017,0.019,0.018,0.02,0.017,0.017,0.016,0.021,0.017,0.016
495,0.021,0.024,0.017,0.019,0.018,0.019,0.021,0.016,0.018,0.021,0.019,0.02,0.018,0.018,0.018,0.022,0.019,0.017
496,0.021,0.024,0.018,0.019,0.018,0.02,0.021,0.016,0.019,0.021,0.019,0.02,0.017,0.017,0.018,0.022,0.019,0.018
497,0.02,0.022,0.017,0.018,0.018,0.019,0.021,0.016,0.018,0.019,0.018,0.019,0.017,0.016,0.018,0.022,0.018,0.017
498,0.017,0.02,0.016,0.017,0.017,0.018,0.019,0.015,0.017,0.018,0.017,0.019,0.016,0.015,0.016,0.021,0.017,0.016
499,0.016,0.019,0.014,0.016,0.016,0.017,0.018,0.015,0.016,0.017,0.016,0.018,0.015,0.015,0.015,0.02,0.017,0.016
500,0.017,0.019,0.014,0.017,0.017,0.017,0.019,0.015,0.016,0.018,0.016,0.019,0.015,0.016,0.016,0.02,0.017,0.016
501,0.018,0.021,0.016,0.018,0.018,0.018,0.02,0.016,0.017,0.018,0.017,0.02,0.016,0.016,0.016,0.02,0.018,0.017
502,0.02,0.022,0.016,0.018,0.018,0.019,0.02,0.017,0.018,0.019,0.018,0.02,0.018,0.016,0.017,0.021,0.018,0.017
503,0.021,0.023,0.017,0.02,0.019,0.02,0.021,0.018,0.019,0.021,0.019,0.021,0.018,0.017,0.018,0.022,0.018,0.018
504,0.021,0.024,0.017,0.02,0.019,0.021,0.021,0.018,0.019,0.023,0.019,0.022,0.019,0.017,0.019,0.023,0.019,0.019
505,0.021,0.025,0.017,0.021,0.019,0.022,0.021,0.018,0.019,0.022,0.02,0.022,0.019,0.018,0.019,0.023,0.02,0.02
506,0.02,0.025,0.018,0.021,0.02,0.022,0.022,0.018,0.02,0.022,0.02,0.023,0.019,0.019,0.02,0.023,0.02,0.02
507,0.018,0.023,0.016,0.019,0.018,0.019,0.02,0.017,0.018,0.019,0.019,0.02,0.017,0.018,0.018,0.021,0.018,0.018
508,0.018,0.023,0.015,0.017,0.017,0.018,0.019,0.015,0.017,0.018,0.017,0.019,0.016,0.017,0.016,0.021,0.017,0.016
509,0.018,0.023,0.015,0.016,0.016,0.018,0.019,0.015,0.017,0.017,0.017,0.018,0.015,0.016,0.015,0.02,0.016,0.015
510,0.018,0.024,0.016,0.017,0.017,0.019,0.02,0.016,0.018,0.018,0.018,0.019,0.016,0.017,0.016,0.021,0.018,0.016
511,0.018,0.024,0.018,0.017,0.018,0.02,0.021,0.018,0.018,0.019,0.019,0.021,0.016,0.017,0.018,0.022,0.019,0.018
512,0.019,0.025,0.018,0.019,0.018,0.021,0.021,0.019,0.019,0.02,0.02,0.021,0.017,0.018,0.018,0.023,0.019,0.018
513,0.02,0.025,0.018,0.019,0.018,0.021,0.021,0.018,0.019,0.021,0.02,0.021,0.018,0.018,0.018,0.023,0.02,0.018
514,0.02,0.024,0.017,0.018,0.018,0.021,0.021,0.017,0.019,0.021,0.02,0.022,0.018,0.018,0.018,0.022,0.019,0.019
515,0.019,0.023,0.016,0.018,0.018,0.02,0.021,0.016,0.018,0.02,0.019,0.022,0.017,0.018,0.018,0.022,0.018,0.019
516,0.019,0.024,0.017,0.018,0.019,0.021,0.021,0.017,0.019,0.02,0.02,0.023,0.017,0.019,0.019,0.022,0.019,0.019
517,0.02,0.024,0.018,0.02,0.02,0.022,0.022,0.019,0.02,0.021,0.02,0.024,0.019,0.019,0.019,0.023,0.021,0.019
518,0.02,0.025,0.019,0.02,0.02,0.023,0.022,0.019,0.02,0.022,0.021,0.024,0.019,0.02,0.019,0.023,0.021,0.019
519,0.02,0.025,0.019,0.019,0.02,0.023,0.021,0.018,0.02,0.021,0.02,0.023,0.018,0.019,0.019,0.022,0.019,0.018
520,0.02,0.026,0.019,0.019,0.02,0.022,0.021,0.018,0.019,0.02,0.02,0.022,0.017,0.019,0.019,0.022,0.02,0.019
521,0.02,0.026,0.018,0.019,0.02,0.022,0.021,0.018,0.019,0.021,0.02,0.022,0.017,0.019,0.019,0.023,0.02,0.019
522,0.019,0.024,0.018,0.019,0.02,0.021,0.02,0.018,0.019,0.021,0.02,0.023,0.017,0.018,0.019,0.023,0.02,0.018
523,0.018,0.024,0.018,0.018,0.02,0.021,0.021,0.017,0.019,0.021,0.02,0.022,0.017,0.018,0.019,0.023,0.02,0.019
524,0.018,0.024,0.018,0.018,0.019,0.021,0.021,0.017,0.019,0.02,0.02,0.022,0.017,0.018,0.019,0.022,0.019,0.018
525,0.017,0.025,0.017,0.018,0.018,0.021,0.02,0.017,0.018,0.019,0.019,0.02,0.016,0.017,0.018,0.021,0.018,0.017
526,0.018,0.026,0.017,0.018,0.018,0.021,0.019,0.017,0.018,0.019,0.019,0.02,0.016,0.017,0.018,0.02,0.018,0.017
527,0.018,0.026,0.016,0.017,0.018,0.019,0.019,0.017,0.018,0.018,0.018,0.019,0.015,0.016,0.018,0.02,0.017,0.016
528,0.016,0.022,0.014,0.014,0.015,0.017,0.017,0.014,0.015,0.016,0.016,0.017,0.013,0.015,0.016,0.019,0.015,0.015
529,0.015,0.02,0.014,0.014,0.014,0.016,0.016,0.013,0.014,0.015,0.015,0.017,0.012,0.014,0.015,0.018,0.015,0.014
530,0.017,0.021,0.015,0.015,0.015,0.018,0.017,0.014,0.015,0.016,0.016,0.019,0.013,0.014,0.015,0.018,0.016,0.015
531,0.018,0.026,0.017,0.017,0.017,0.02,0.019,0.016,0.018,0.018,0.018,0.021,0.015,0.017,0.017,0.02,0.018,0.017
532,0.018,0.027,0.017,0.018,0.019,0.02,0.019,0.017,0.018,0.019,0.018,0.02,0.016,0.017,0.017,0.021,0.018,0.017
533,0.016,0.025,0.015,0.015,0.017,0.018,0.018,0.015,0.017,0.017,0.017,0.019,0.014,0.015,0.015,0.018,0.016,0.015
534,0.017,0.025,0.016,0.016,0.017,0.018,0.019,0.016,0.017,0.017,0.018,0.019,0.015,0.015,0.016,0.019,0.016,0.016
535,0.018,0.025,0.017,0.017,0.018,0.02,0.02,0.017,0.018,0.019,0.019,0.021,0.016,0.017,0.017,0.021,0.018,0.017
536,0.018,0.025,0.017,0.017,0.018,0.02,0.02,0.016,0.018,0.018,0.019,0.021,0.015,0.017,0.017,0.021,0.018,0.017
537,0.017,0.024,0.016,0.016,0.017,0.019,0.019,0.015,0.018,0.018,0.017,0.02,0.015,0.016,0.017,0.02,0.017,0.016
538,0.016,0.021,0.015,0.015,0.015,0.016,0.017,0.015,0.015,0.016,0.016,0.018,0.015,0.015,0.015,0.017,0.017,0.015
539,0.015,0.019,0.014,0.014,0.015,0.016,0.017,0.015,0.015,0.016,0.016,0.018,0.014,0.014,0.015,0.017,0.016,0.014
540,0.014,0.018,0.012,0.013,0.014,0.015,0.016,0.013,0.014,0.016,0.015,0.017,0.013,0.013,0.014,0.017,0.015,0.013
541,0.013,0.019,0.011,0.012,0.013,0.014,0.015,0.012,0.014,0.015,0.014,0.016,0.011,0.013,0.012,0.017,0.014,0.012
542,0.014,0.02,0.013,0.013,0.014,0.016,0.016,0.013,0.015,0.015,0.015,0.017,0.012,0.013,0.013,0.017,0.014,0.013
543,0.014,0.02,0.013,0.013,0.014,0.015,0.014,0.012,0.014,0.014,0.014,0.017,0.011,0.013,0.013,0.016,0.013,0.013
544,0.014,0.019,0.013,0.013,0.014,0.015,0.015,0.012,0.014,0.015,0.014,0.016,0.012,0.014,0.013,0.016,0.014,0.013
545,0.014,0.017,0.013,0.013,0.014,0.016,0.015,0.013,0.013,0.016,0.015,0.017,0.013,0.014,0.014,0.017,0.015,0.014
546,0.013,0.015,0.012,0.013,0.014,0.016,0.015,0.013,0.014,0.016,0.015,0.017,0.013,0.014,0.014,0.018,0.015,0.015
547,0.014,0.015,0.012,0.014,0.013,0.017,0.016,0.013,0.015,0.017,0.015,0.018,0.013,0.013,0.014,0.019,0.015,0.014
548,0.015,0.017,0.014,0.015,0.015,0.018,0.018,0.014,0.016,0.018,0.017,0.02,0.014,0.014,0.015,0.02,0.016,0.015
549,0.017,0.02,0.016,0.017,0.017,0.02,0.019,0.016,0.017,0.019,0.019,0.021,0.016,0.016,0.017,0.021,0.018,0.016
550,0.016,0.019,0.014,0.015,0.016,0.019,0.018,0.015,0.016,0.016,0.018,0.02,0.014,0.015,0.016,0.019,0.017,0.015
551,0.015,0.018,0.013,0.014,0.016,0.017,0.017,0.014,0.016,0.015,0.016,0.018,0.013,0.014,0.015,0.018,0.015,0.014
552,0.014,0.017,0.014,0.013,0.014,0.016,0.016,0.014,0.016,0.015,0.015,0.017,0.012,0.014,0.014,0.017,0.015,0.013
553,0.013,0.014,0.013,0.013,0.013,0.015,0.015,0.013,0.014,0.015,0.014,0.017,0.011,0.013,0.013,0.015,0.014,0.012
554,0.013,0.012,0.011,0.011,0.011,0.013,0.013,0.011,0.012,0.013,0.012,0.015,0.009,0.011,0.011,0.013,0.012,0.01
555,0.012,0.011,0.008,0.011,0.01,0.012,0.012,0.009,0.01,0.011,0.011,0.013,0.008,0.009,0.011,0.012,0.011,0.01
556,0.012,0.012,0.009,0.011,0.011,0.013,0.012,0.01,0.011,0.012,0.012,0.015,0.01,0.01,0.011,0.014,0.012,0.012
557,0.013,0.014,0.011,0.012,0.012,0.014,0.013,0.012,0.012,0.014,0.013,0.017,0.011,0.012,0.012,0.016,0.014,0.013
558,0.013,0.015,0.012,0.013,0.012,0.014,0.013,0.013,0.013,0.015,0.013,0.017,0.012,0.013,0.013,0.016,0.014,0.013
559,0.015,0.016,0.014,0.014,0.014,0.016,0.015,0.014,0.015,0.015,0.015,0.017,0.013,0.013,0.014,0.017,0.015,0.013
560,0.014,0.015,0.013,0.014,0.015,0.017,0.015,0.013,0.015,0.015,0.015,0.016,0.013,0.012,0.013,0.016,0.014,0.013
561,0.013,0.014,0.012,0.013,0.014,0.016,0.015,0.013,0.014,0.014,0.014,0.015,0.012,0.011,0.012,0.016,0.013,0.012
562,0.013,0.016,0.012,0.014,0.014,0.016,0.015,0.014,0.013,0.015,0.015,0.016,0.012,0.012,0.013,0.017,0.014,0.013
563,0.014,0.014,0.011,0.013,0.014,0.015,0.015,0.013,0.013,0.015,0.015,0.015,0.011,0.011,0.013,0.016,0.013,0.012
564,0.012,0.012,0.009,0.011,0.011,0.013,0.013,0.011,0.011,0.013,0.013,0.014,0.009,0.009,0.011,0.013,0.012,0.01
565,0.009,0.01,0.007,0.008,0.009,0.01,0.011,0.009,0.009,0.01,0.01,0.012,0.007,0.008,0.009,0.011,0.01,0.007
566,0.009,0.01,0.007,0.009,0.009,0.01,0.011,0.009,0.01,0.01,0.01,0.012,0.007,0.009,0.008,0.011,0.01,0.007
567,0.011,0.011,0.01,0.011,0.011,0.012,0.013,0.011,0.012,0.012,0.012,0.014,0.009,0.011,0.011,0.013,0.012,0.01
568,0.011,0.011,0.01,0.011,0.012,0.012,0.014,0.011,0.011,0.012,0.013,0.014,0.01,0.012,0.011,0.013,0.012,0.01
569,0.01,0.008,0.008,0.01,0.01,0.011,0.012,0.01,0.01,0.01,0.011,0.013,0.009,0.01,0.01,0.014,0.011,0.009
570,0.009,0.007,0.008,0.01,0.01,0.011,0.012,0.01,0.01,0.011,0.01,0.013,0.008,0.009,0.01,0.014,0.011,0.009
571,0.009,0.008,0.009,0.01,0.011,0.012,0.013,0.009,0.01,0.012,0.011,0.013,0.008,0.009,0.01,0.014,0.012,0.01
572,0.009,0.008,0.009,0.009,0.01,0.012,0.013,0.009,0.01,0.012,0.011,0.013,0.008,0.009,0.01,0.013,0.011,0.009
573,0.007,0.007,0.008,0.008,0.009,0.01,0.012,0.007,0.009,0.011,0.01,0.012,0.007,0.008,0.009,0.012,0.01,0.008
574,0.008,0.006,0.008,0.008,0.009,0.009,0.009,0.007,0.008,0.01,0.01,0.013,0.006,0.007,0.008,0.012,0.01,0.008
575,0.01,0.008,0.009,0.009,0.01,0.01,0.01,0.008,0.01,0.011,0.011,0.014,0.008,0.007,0.009,0.013,0.01,0.009
576,0.01,0.009,0.008,0.009,0.009,0.01,0.011,0.008,0.01,0.01,0.01,0.013,0.008,0.007,0.008,0.013,0.009,0.009
577,0.009,0.011,0.009,0.009,0.009,0.011,0.011,0.009,0.01,0.009,0.01,0.012,0.008,0.008,0.008,0.013,0.008,0.008
578,0.01,0.011,0.009,0.01,0.011,0.012,0.012,0.009,0.011,0.01,0.011,0.013,0.008,0.009,0.009,0.013,0.01,0.008
579,0.012,0.012,0.011,0.012,0.012,0.013,0.014,0.012,0.013,0.013,0.013,0.015,0.011,0.011,0.013,0.014,0.013,0.012
580,0.01,0.009,0.009,0.01,0.01,0.011,0.012,0.01,0.01,0.012,0.011,0.014,0.009,0.009,0.01,0.012,0.011,0.009
581,0.009,0.007,0.008,0.008,0.009,0.01,0.01,0.008,0.008,0.01,0.009,0.011,0.007,0.008,0.008,0.011,0.009,0.007
582,0.009,0.007,0.009,0.009,0.01,0.011,0.011,0.009,0.009,0.01,0.01,0.012,0.007,0.008,0.008,0.013,0.01,0.008
583,0.011,0.009,0.01,0.011,0.012,0.013,0.012,0.011,0.011,0.011,0.012,0.014,0.01,0.011,0.011,0.015,0.013,0.011
584,0.011,0.011,0.011,0.012,0.012,0.014,0.012,0.012,0.012,0.013,0.014,0.015,0.011,0.013,0.012,0.016,0.014,0.012
585,0.009,0.009,0.009,0.009,0.01,0.013,0.01,0.01,0.01,0.011,0.011,0.014,0.009,0.01,0.011,0.013,0.011,0.009
586,0.009,0.008,0.008,0.008,0.009,0.012,0.01,0.009,0.008,0.009,0.01,0.012,0.007,0.008,0.009,0.012,0.009,0.008
587,0.008,0.007,0.006,0.007,0.007,0.01,0.01,0.007,0.006,0.008,0.008,0.011,0.006,0.007,0.006,0.011,0.007,0.008
588,0.009,0.009,0.008,0.008,0.007,0.009,0.011,0.008,0.008,0.009,0.01,0.012,0.007,0.008,0.007,0.012,0.009,0.008
589,0.011,0.011,0.01,0.011,0.01,0.012,0.013,0.011,0.011,0.012,0.012,0.014,0.009,0.01,0.01,0.013,0.012,0.009
590,0.011,0.01,0.01,0.011,0.012,0.013,0.013,0.012,0.013,0.013,0.013,0.014,0.009,0.011,0.013,0.014,0.013,0.01
591,0.008,0.006,0.007,0.009,0.01,0.012,0.011,0.01,0.01,0.011,0.01,0.012,0.007,0.009,0.011,0.012,0.011,0.007
592,0.008,0.006,0.007,0.008,0.009,0.011,0.011,0.009,0.009,0.011,0.01,0.011,0.006,0.008,0.01,0.012,0.01,0.008
593,0.006,0.003,0.005,0.006,0.007,0.009,0.01,0.005,0.007,0.008,0.008,0.009,0.005,0.006,0.008,0.01,0.007,0.005
594,0.005,0.002,0.004,0.004,0.005,0.007,0.008,0.004,0.005,0.006,0.006,0.007,0.004,0.005,0.006,0.008,0.006,0.005
595,0.003,-0.001,0.0,0.001,0.002,0.004,0.004,0.002,0.003,0.003,0.003,0.004,0.002,0.003,0.003,0.005,0.004,0.002
596,0.002,-0.001,0.0,0.001,0.001,0.004,0.003,0.001,0.002,0.003,0.001,0.004,0.001,0.002,0.003,0.004,0.003,0.001
597,0.003,0.001,0.003,0.003,0.004,0.005,0.005,0.002,0.004,0.004,0.003,0.006,0.003,0.003,0.004,0.006,0.004,0.003
598,0.005,0.002,0.004,0.004,0.005,0.006,0.006,0.003,0.004,0.005,0.005,0.007,0.003,0.003,0.004,0.007,0.005,0.004
599,0.006,0.003,0.003,0.005,0.006,0.007,0.007,0.004,0.004,0.005,0.007,0.008,0.003,0.004,0.004,0.008,0.006,0.004
600,0.006,0.002,0.004,0.005,0.006,0.008,0.008,0.005,0.005,0.007,0.008,0.009,0.003,0.004,0.005,0.009,0.008,0.005
601,0.008,0.003,0.006,0.006,0.007,0.009,0.009,0.006,0.008,0.008,0.009,0.011,0.005,0.006,0.007,0.01,0.008,0.006
602,0.01,0.004,0.008,0.007,0.009,0.01,0.009,0.007,0.009,0.01,0.01,0.011,0.008,0.008,0.009,0.011,0.01,0.008
603,0.009,0.003,0.007,0.007,0.008,0.009,0.009,0.007,0.009,0.008,0.009,0.011,0.007,0.008,0.007,0.01,0.009,0.008
604,0.005,0.001,0.005,0.005,0.007,0.008,0.008,0.005,0.007,0.007,0.007,0.009,0.005,0.006,0.006,0.009,0.007,0.007
605,0.004,-0.001,0.004,0.005,0.006,0.007,0.007,0.005,0.006,0.006,0.007,0.008,0.004,0.005,0.004,0.009,0.005,0.005
606,0.004,0.0,0.004,0.005,0.006,0.008,0.008,0.004,0.005,0.006,0.008,0.008,0.004,0.006,0.005,0.009,0.006,0.005
607,0.004,0.001,0.004,0.004,0.007,0.008,0.007,0.004,0.006,0.007,0.008,0.009,0.004,0.007,0.005,0.01,0.006,0.006
608,0.004,0.002,0.004,0.004,0.006,0.006,0.006,0.003,0.007,0.007,0.006,0.008,0.003,0.006,0.004,0.009,0.006,0.005
609,0.003,-0.002,0.002,0.003,0.004,0.005,0.005,0.002,0.005,0.005,0.003,0.006,0.001,0.003,0.002,0.007,0.004,0.004
610,0.005,0.0,0.003,0.004,0.005,0.006,0.007,0.003,0.005,0.006,0.005,0.008,0.002,0.005,0.005,0.008,0.005,0.005
611,0.009,0.003,0.008,0.008,0.009,0.01,0.01,0.007,0.008,0.01,0.01,0.012,0.007,0.009,0.009,0.012,0.009,0.009
612,0.009,0.005,0.008,0.008,0.009,0.011,0.01,0.009,0.01,0.011,0.011,0.013,0.009,0.01,0.009,0.012,0.011,0.009
613,0.006,0.002,0.006,0.005,0.006,0.007,0.007,0.005,0.007,0.007,0.007,0.009,0.005,0.006,0.005,0.008,0.007,0.006
614,0.005,0.001,0.004,0.005,0.005,0.007,0.006,0.005,0.006,0.006,0.006,0.008,0.003,0.004,0.005,0.008,0.006,0.005
615,0.008,0.001,0.005,0.006,0.006,0.009,0.008,0.005,0.007,0.007,0.007,0.008,0.003,0.005,0.005,0.009,0.006,0.006
616,0.008,0.001,0.005,0.006,0.007,0.009,0.008,0.006,0.008,0.007,0.008,0.01,0.004,0.006,0.005,0.009,0.008,0.006
617,0.007,0.001,0.006,0.005,0.005,0.009,0.007,0.005,0.008,0.006,0.007,0.009,0.004,0.006,0.006,0.009,0.008,0.006
618,0.007,0.001,0.006,0.005,0.006,0.008,0.008,0.006,0.008,0.007,0.008,0.01,0.005,0.007,0.006,0.01,0.007,0.008
619,0.009,0.003,0.008,0.008,0.009,0.01,0.01,0.009,0.01,0.009,0.011,0.012,0.007,0.01,0.008,0.012,0.009,0.01
620,0.009,0.005,0.008,0.01,0.01,0.011,0.011,0.01,0.01,0.01,0.012,0.013,0.008,0.01,0.008,0.012,0.01,0.01
621,0.009,0.006,0.008,0.009,0.01,0.012,0.011,0.01,0.01,0.01,0.011,0.013,0.008,0.01,0.009,0.013,0.011,0.009
622,0.008,0.005,0.008,0.008,0.009,0.011,0.011,0.009,0.009,0.01,0.01,0.012,0.008,0.009,0.008,0.011,0.01,0.008
623,0.007,0.003,0.007,0.006,0.008,0.01,0.009,0.007,0.009,0.009,0.009,0.01,0.006,0.008,0.006,0.009,0.008,0.007
624,0.005,0.0,0.005,0.005,0.005,0.008,0.007,0.005,0.007,0.008,0.007,0.008,0.004,0.006,0.004,0.007,0.005,0.005
625,0.005,0.001,0.005,0.006,0.005,0.007,0.007,0.005,0.007,0.007,0.007,0.008,0.003,0.005,0.004,0.008,0.005,0.005
626,0.005,0.001,0.004,0.006,0.005,0.007,0.008,0.006,0.006,0.008,0.007,0.009,0.005,0.006,0.006,0.009,0.006,0.006
627,0.005,0.001,0.004,0.004,0.006,0.007,0.006,0.005,0.005,0.007,0.006,0.008,0.004,0.005,0.005,0.009,0.006,0.007
628,0.004,-0.001,0.002,0.003,0.004,0.007,0.005,0.004,0.005,0.006,0.006,0.007,0.003,0.004,0.004,0.008,0.007,0.005
629,0.003,-0.001,0.002,0.003,0.004,0.005,0.004,0.003,0.004,0.004,0.005,0.006,0.001,0.003,0.003,0.006,0.005,0.003
630,0.003,0.0,0.003,0.003,0.003,0.005,0.005,0.003,0.004,0.004,0.005,0.006,0.001,0.003,0.003,0.006,0.005,0.002
631,0.002,-0.001,0.003,0.003,0.003,0.004,0.005,0.002,0.003,0.003,0.004,0.006,0.002,0.002,0.003,0.006,0.004,0.002
632,0.0,-0.003,0.001,0.0,0.0,0.003,0.002,0.001,0.002,0.001,0.001,0.003,-0.001,-0.002,0.0,0.003,0.002,0.0
633,0.0,-0.002,-0.002,-0.001,0.0,0.002,0.001,0.0,0.001,0.0,0.001,0.002,-0.002,-0.003,0.0,0.003,0.002,-0.001
634,0.0,-0.002,-0.001,0.0,0.001,0.001,0.002,0.001,0.002,0.001,0.002,0.003,-0.002,-0.001,0.0,0.003,0.002,0.001
635,0.002,-0.002,0.0,0.002,0.002,0.003,0.003,0.002,0.003,0.002,0.003,0.005,0.0,0.002,0.002,0.004,0.003,0.001
636,0.005,0.001,0.004,0.004,0.004,0.005,0.006,0.004,0.005,0.004,0.005,0.007,0.002,0.004,0.004,0.007,0.005,0.003
637,0.008,0.002,0.005,0.006,0.005,0.007,0.008,0.005,0.006,0.006,0.006,0.008,0.004,0.005,0.006,0.009,0.007,0.004
638,0.008,0.003,0.007,0.008,0.006,0.008,0.009,0.006,0.008,0.008,0.008,0.01,0.005,0.006,0.008,0.011,0.008,0.006
639,0.007,0.003,0.006,0.007,0.006,0.008,0.009,0.006,0.008,0.008,0.009,0.01,0.004,0.006,0.009,0.01,0.007,0.006
640,0.006,0.005,0.006,0.007,0.007,0.01,0.009,0.007,0.009,0.009,0.01,0.011,0.005,0.007,0.009,0.011,0.008,0.008
641,0.007,0.005,0.007,0.007,0.009,0.011,0.009,0.008,0.009,0.009,0.01,0.01,0.005,0.007,0.009,0.012,0.009,0.009
642,0.005,0.002,0.005,0.005,0.007,0.009,0.007,0.005,0.007,0.007,0.007,0.008,0.004,0.006,0.005,0.01,0.008,0.007
643,0.003,-0.001,0.003,0.003,0.005,0.006,0.004,0.003,0.005,0.005,0.005,0.007,0.001,0.003,0.002,0.007,0.006,0.004
644,0.005,0.001,0.004,0.004,0.005,0.006,0.006,0.004,0.006,0.006,0.007,0.008,0.002,0.004,0.005,0.007,0.006,0.006
645,0.01,0.005,0.008,0.007,0.009,0.01,0.01,0.008,0.009,0.011,0.011,0.012,0.008,0.008,0.01,0.012,0.01,0.01
646,0.012,0.006,0.01,0.009,0.01,0.011,0.012,0.009,0.01,0.012,0.012,0.013,0.01,0.01,0.01,0.013,0.012,0.01
647,0.008,0.003,0.007,0.008,0.007,0.009,0.009,0.007,0.008,0.009,0.008,0.011,0.006,0.007,0.007,0.01,0.009,0.007
648,0.005,-0.001,0.004,0.005,0.005,0.006,0.007,0.004,0.005,0.004,0.005,0.008,0.002,0.004,0.003,0.007,0.006,0.003
649,0.005,-0.001,0.004,0.004,0.005,0.007,0.007,0.004,0.005,0.004,0.005,0.007,0.002,0.004,0.003,0.007,0.005,0.003
650,0.005,0.0,0.003,0.004,0.006,0.007,0.007,0.004,0.005,0.005,0.006,0.007,0.003,0.004,0.005,0.007,0.006,0.005
651,0.005,0.001,0.004,0.005,0.005,0.008,0.006,0.004,0.005,0.007,0.006,0.008,0.004,0.005,0.006,0.007,0.007,0.005
652,0.009,0.004,0.008,0.008,0.008,0.01,0.009,0.007,0.008,0.01,0.01,0.01,0.007,0.008,0.008,0.011,0.01,0.009
653,0.011,0.007,0.009,0.01,0.01,0.012,0.012,0.011,0.011,0.011,0.012,0.013,0.009,0.01,0.008,0.013,0.011,0.01
654,0.012,0.008,0.011,0.011,0.012,0.014,0.014,0.013,0.012,0.012,0.014,0.016,0.011,0.012,0.01,0.014,0.013,0.011
655,0.01,0.007,0.01,0.01,0.011,0.013,0.014,0.012,0.012,0.011,0.013,0.016,0.01,0.011,0.011,0.014,0.012,0.011
656,0.009,0.005,0.009,0.01,0.01,0.01,0.012,0.01,0.01,0.009,0.011,0.013,0.008,0.009,0.009,0.012,0.01,0.01
657,0.009,0.006,0.009,0.009,0.01,0.01,0.013,0.009,0.01,0.01,0.01,0.012,0.008,0.009,0.008,0.013,0.009,0.01
658,0.01,0.008,0.01,0.011,0.012,0.011,0.013,0.011,0.011,0.012,0.011,0.013,0.009,0.01,0.01,0.014,0.01,0.011
659,0.01,0.007,0.009,0.011,0.011,0.012,0.012,0.01,0.011,0.012,0.011,0.013,0.008,0.01,0.009,0.013,0.011,0.011
660,0.007,0.004,0.006,0.009,0.008,0.009,0.009,0.007,0.008,0.009,0.009,0.012,0.006,0.007,0.007,0.01,0.009,0.008
661,0.004,0.002,0.002,0.004,0.005,0.006,0.006,0.004,0.005,0.006,0.006,0.008,0.002,0.004,0.004,0.007,0.006,0.005
662,0.004,0.004,0.003,0.004,0.006,0.006,0.006,0.004,0.005,0.006,0.006,0.009,0.003,0.005,0.005,0.008,0.006,0.005
663,0.006,0.006,0.005,0.006,0.008,0.009,0.008,0.006,0.008,0.007,0.008,0.011,0.004,0.007,0.006,0.011,0.008,0.007
664,0.008,0.007,0.007,0.009,0.009,0.011,0.01,0.007,0.009,0.009,0.009,0.011,0.005,0.008,0.008,0.012,0.009,0.009
665,0.008,0.006,0.007,0.008,0.008,0.01,0.009,0.007,0.008,0.008,0.008,0.01,0.005,0.007,0.007,0.01,0.009,0.008
666,0.008,0.007,0.006,0.008,0.008,0.009,0.008,0.006,0.008,0.007,0.007,0.009,0.005,0.006,0.006,0.009,0.008,0.006
667,0.009,0.007,0.006,0.008,0.009,0.01,0.008,0.007,0.009,0.007,0.008,0.01,0.006,0.007,0.007,0.011,0.008,0.008
668,0.009,0.008,0.007,0.008,0.009,0.011,0.01,0.008,0.01,0.009,0.009,0.011,0.007,0.009,0.008,0.013,0.009,0.009
669,0.009,0.009,0.007,0.008,0.008,0.011,0.011,0.008,0.01,0.009,0.009,0.012,0.007,0.009,0.008,0.013,0.009,0.009
670,0.01,0.01,0.007,0.008,0.009,0.011,0.011,0.009,0.011,0.011,0.01,0.013,0.008,0.01,0.009,0.012,0.01,0.01
671,0.011,0.01,0.008,0.009,0.01,0.011,0.011,0.009,0.011,0.011,0.011,0.014,0.008,0.01,0.01,0.013,0.011,0.011
672,0.009,0.008,0.007,0.007,0.009,0.01,0.01,0.008,0.009,0.01,0.008,0.012,0.007,0.008,0.008,0.011,0.01,0.009
673,0.005,0.004,0.003,0.004,0.006,0.007,0.007,0.004,0.005,0.005,0.005,0.009,0.003,0.004,0.004,0.008,0.006,0.004
674,0.003,0.0,0.0,0.001,0.003,0.004,0.004,0.002,0.002,0.002,0.003,0.006,0.001,0.002,0.001,0.005,0.003,0.001
675,0.003,0.0,0.001,0.001,0.004,0.004,0.003,0.002,0.003,0.003,0.004,0.005,0.001,0.001,0.003,0.005,0.004,0.003
676,0.005,0.003,0.003,0.003,0.006,0.007,0.006,0.004,0.006,0.006,0.006,0.007,0.004,0.003,0.006,0.008,0.006,0.006
677,0.006,0.005,0.004,0.006,0.007,0.009,0.008,0.006,0.008,0.009,0.008,0.01,0.005,0.005,0.007,0.011,0.007,0.006
678,0.006,0.005,0.005,0.006,0.006,0.009,0.008,0.007,0.007,0.009,0.008,0.01,0.005,0.005,0.007,0.01,0.007,0.005
679,0.007,0.006,0.007,0.008,0.007,0.01,0.009,0.007,0.009,0.01,0.009,0.012,0.006,0.007,0.008,0.01,0.008,0.007
680,0.01,0.007,0.008,0.01,0.009,0.012,0.011,0.008,0.011,0.011,0.011,0.014,0.007,0.009,0.01,0.011,0.01,0.01
681,0.011,0.009,0.009,0.01,0.01,0.013,0.012,0.009,0.011,0.011,0.012,0.014,0.008,0.01,0.01,0.012,0.01,0.01
682,0.01,0.008,0.008,0.009,0.01,0.011,0.011,0.01,0.011,0.01,0.011,0.013,0.008,0.009,0.009,0.012,0.011,0.009
683,0.008,0.005,0.006,0.007,0.009,0.009,0.009,0.008,0.009,0.009,0.01,0.01,0.007,0.008,0.007,0.011,0.009,0.008
684,0.008,0.004,0.007,0.007,0.009,0.009,0.009,0.008,0.008,0.01,0.01,0.01,0.007,0.007,0.007,0.01,0.009,0.008
685,0.009,0.005,0.007,0.008,0.009,0.009,0.01,0.008,0.009,0.01,0.012,0.011,0.006,0.008,0.008,0.01,0.01,0.008
686,0.01,0.007,0.008,0.009,0.01,0.009,0.01,0.009,0.01,0.01,0.011,0.012,0.006,0.009,0.009,0.011,0.01,0.008
687,0.009,0.006,0.007,0.008,0.009,0.008,0.009,0.009,0.01,0.009,0.009,0.012,0.005,0.008,0.007,0.012,0.01,0.007
688,0.008,0.005,0.007,0.006,0.008,0.009,0.009,0.008,0.009,0.01,0.008,0.011,0.006,0.007,0.007,0.011,0.009,0.006
689,0.008,0.006,0.007,0.008,0.008,0.011,0.01,0.009,0.009,0.011,0.011,0.013,0.008,0.009,0.008,0.013,0.01,0.009
690,0.009,0.007,0.007,0.008,0.007,0.011,0.01,0.008,0.01,0.009,0.01,0.012,0.008,0.009,0.009,0.011,0.009,0.01
691,0.008,0.007,0.007,0.007,0.007,0.009,0.01,0.007,0.009,0.007,0.009,0.012,0.007,0.008,0.007,0.011,0.008,0.008
692,0.009,0.005,0.007,0.006,0.008,0.008,0.01,0.007,0.009,0.008,0.009,0.012,0.007,0.007,0.006,0.011,0.008,0.008
693,0.007,0.004,0.006,0.007,0.008,0.007,0.008,0.008,0.008,0.008,0.008,0.012,0.006,0.006,0.006,0.012,0.009,0.008
694,0.006,0.003,0.004,0.005,0.006,0.006,0.008,0.006,0.005,0.006,0.006,0.008,0.004,0.004,0.004,0.009,0.007,0.006
695,0.004,0.003,0.002,0.003,0.004,0.005,0.006,0.004,0.004,0.006,0.006,0.006,0.004,0.004,0.003,0.007,0.007,0.004
696,0.004,0.001,0.004,0.003,0.004,0.006,0.006,0.004,0.005,0.005,0.007,0.007,0.004,0.005,0.004,0.007,0.007,0.003
697,0.004,0.002,0.004,0.004,0.005,0.008,0.005,0.004,0.006,0.005,0.006,0.009,0.003,0.005,0.005,0.007,0.006,0.004
698,0.003,0.002,0.004,0.003,0.004,0.005,0.005,0.003,0.005,0.004,0.004,0.007,0.001,0.003,0.003,0.006,0.003,0.003
699,0.005,0.004,0.004,0.004,0.007,0.007,0.005,0.004,0.005,0.006,0.005,0.009,0.002,0.004,0.005,0.007,0.005,0.005
700,0.009,0.006,0.007,0.007,0.01,0.011,0.01,0.008,0.008,0.01,0.01,0.013,0.007,0.008,0.009,0.012,0.01,0.008
701,0.011,0.007,0.009,0.007,0.011,0.012,0.011,0.009,0.01,0.011,0.012,0.014,0.009,0.01,0.012,0.014,0.011,0.009
702,0.008,0.004,0.006,0.006,0.007,0.007,0.008,0.007,0.008,0.008,0.01,0.011,0.007,0.007,0.008,0.011,0.009,0.007
703,0.003,0.001,0.002,0.003,0.004,0.003,0.003,0.004,0.004,0.003,0.005,0.008,0.002,0.002,0.004,0.006,0.003,0.004
704,0.003,0.002,0.003,0.004,0.005,0.004,0.004,0.003,0.006,0.004,0.005,0.007,0.003,0.002,0.005,0.006,0.004,0.004
705,0.005,0.003,0.005,0.006,0.007,0.005,0.006,0.004,0.007,0.006,0.005,0.009,0.004,0.005,0.007,0.008,0.005,0.006
706,0.004,0.002,0.005,0.005,0.005,0.005,0.006,0.003,0.006,0.006,0.004,0.007,0.003,0.005,0.005,0.007,0.006,0.003
707,0.003,0.0,0.002,0.002,0.003,0.006,0.004,0.003,0.003,0.004,0.004,0.006,0.001,0.003,0.002,0.005,0.004,0.002
708,0.004,0.002,0.003,0.004,0.005,0.007,0.006,0.005,0.006,0.006,0.006,0.007,0.003,0.003,0.004,0.008,0.006,0.004
709,0.006,0.004,0.006,0.007,0.007,0.008,0.009,0.007,0.007,0.009,0.008,0.01,0.004,0.006,0.006,0.011,0.008,0.007
710,0.007,0.004,0.006,0.007,0.006,0.008,0.009,0.007,0.008,0.008,0.006,0.01,0.004,0.007,0.006,0.01,0.008,0.006
711,0.009,0.005,0.006,0.007,0.007,0.01,0.009,0.007,0.008,0.009,0.008,0.011,0.005,0.008,0.006,0.011,0.009,0.007
712,0.009,0.007,0.006,0.007,0.008,0.01,0.009,0.009,0.009,0.011,0.011,0.012,0.007,0.009,0.007,0.011,0.01,0.008
713,0.011,0.008,0.009,0.01,0.012,0.012,0.011,0.011,0.01,0.012,0.013,0.013,0.01,0.009,0.01,0.014,0.012,0.011
714,0.011,0.01,0.009,0.011,0.012,0.013,0.013,0.013,0.013,0.013,0.013,0.014,0.01,0.011,0.012,0.014,0.013,0.012
715,0.011,0.011,0.01,0.012,0.011,0.014,0.014,0.012,0.013,0.012,0.013,0.015,0.01,0.012,0.013,0.015,0.013,0.013
716,0.011,0.01,0.009,0.01,0.009,0.013,0.012,0.01,0.011,0.011,0.012,0.014,0.007,0.011,0.011,0.015,0.011,0.01
717,0.011,0.009,0.008,0.01,0.01,0.012,0.011,0.009,0.01,0.01,0.01,0.013,0.007,0.009,0.009,0.014,0.011,0.009
718,0.008,0.006,0.005,0.006,0.008,0.009,0.009,0.006,0.007,0.007,0.008,0.01,0.005,0.006,0.006,0.009,0.008,0.005
719,0.002,0.002,0.003,0.003,0.005,0.006,0.006,0.001,0.003,0.004,0.005,0.007,0.001,0.002,0.002,0.005,0.003,0.002
720,0.001,0.001,0.002,0.0,0.002,0.003,0.003,-0.002,0.002,0.001,0.003,0.004,-0.001,0.0,0.001,0.002,0.0,0.0
721,0.004,0.004,0.005,0.003,0.005,0.007,0.005,0.003,0.006,0.005,0.007,0.007,0.002,0.004,0.005,0.005,0.003,0.005
722,0.01,0.008,0.008,0.007,0.009,0.012,0.009,0.009,0.01,0.008,0.011,0.01,0.007,0.008,0.012,0.01,0.009,0.009
723,0.014,0.011,0.011,0.011,0.013,0.015,0.013,0.013,0.012,0.013,0.013,0.016,0.011,0.013,0.014,0.016,0.013,0.012
724,0.014,0.01,0.01,0.01,0.012,0.012,0.011,0.011,0.011,0.013,0.011,0.015,0.01,0.012,0.012,0.016,0.011,0.01
725,0.011,0.007,0.01,0.01,0.012,0.01,0.009,0.009,0.012,0.011,0.01,0.014,0.008,0.011,0.009,0.015,0.009,0.007
726,0.008,0.003,0.006,0.008,0.008,0.008,0.008,0.007,0.009,0.007,0.008,0.011,0.005,0.007,0.007,0.013,0.007,0.006
727,0.011,0.006,0.009,0.011,0.011,0.011,0.014,0.012,0.013,0.011,0.013,0.015,0.008,0.009,0.011,0.016,0.013,0.011
728,0.012,0.009,0.01,0.011,0.012,0.012,0.017,0.013,0.014,0.014,0.015,0.016,0.009,0.011,0.013,0.016,0.017,0.014
729,0.01,0.009,0.011,0.008,0.011,0.011,0.013,0.012,0.013,0.013,0.012,0.015,0.009,0.011,0.01,0.013,0.014,0.013
730,0.007,0.005,0.005,0.003,0.006,0.007,0.008,0.007,0.008,0.006,0.007,0.011,0.005,0.006,0.006,0.009,0.008,0.006
731,0.006,0.005,0.005,0.006,0.007,0.008,0.008,0.007,0.007,0.007,0.005,0.009,0.006,0.007,0.006,0.01,0.006,0.006
732,0.006,0.006,0.005,0.007,0.009,0.009,0.008,0.007,0.006,0.008,0.007,0.01,0.007,0.006,0.008,0.012,0.008,0.008
733,0.008,0.007,0.007,0.009,0.01,0.009,0.007,0.008,0.008,0.01,0.01,0.011,0.008,0.006,0.009,0.012,0.009,0.009
734,0.01,0.01,0.009,0.011,0.012,0.012,0.011,0.01,0.011,0.011,0.013,0.015,0.011,0.008,0.012,0.013,0.013,0.012
735,0.014,0.013,0.011,0.014,0.014,0.015,0.015,0.014,0.013,0.015,0.017,0.017,0.014,0.012,0.015,0.015,0.015,0.013
736,0.013,0.012,0.01,0.012,0.013,0.015,0.014,0.012,0.011,0.012,0.015,0.016,0.012,0.012,0.014,0.015,0.012,0.011
737,0.006,0.006,0.005,0.007,0.007,0.01,0.009,0.007,0.006,0.008,0.008,0.011,0.005,0.006,0.007,0.01,0.007,0.005
738,0.005,0.005,0.003,0.005,0.005,0.007,0.009,0.006,0.006,0.006,0.007,0.01,0.004,0.005,0.005,0.009,0.007,0.005
739,0.009,0.007,0.007,0.009,0.01,0.011,0.012,0.012,0.011,0.012,0.011,0.014,0.008,0.009,0.01,0.012,0.011,0.008
740,0.011,0.008,0.009,0.011,0.011,0.011,0.011,0.012,0.01,0.013,0.011,0.014,0.008,0.011,0.01,0.013,0.012,0.008
741,0.008,0.004,0.005,0.006,0.007,0.008,0.006,0.007,0.005,0.008,0.007,0.009,0.004,0.007,0.005,0.009,0.007,0.005
742,0.003,0.0,-0.001,0.003,0.001,0.002,0.001,0.002,0.002,0.001,0.002,0.002,0.002,0.002,0.001,0.006,0.003,0.002
743,0.003,0.004,0.002,0.005,0.004,0.004,0.004,0.004,0.006,0.002,0.004,0.004,0.003,0.003,0.004,0.009,0.005,0.005
744,0.005,0.007,0.004,0.006,0.006,0.007,0.006,0.006,0.009,0.005,0.007,0.009,0.004,0.007,0.007,0.011,0.009,0.005
745,0.006,0.006,0.006,0.006,0.006,0.01,0.008,0.008,0.01,0.007,0.011,0.013,0.005,0.01,0.009,0.011,0.009,0.007
746,0.003,0.004,0.003,0.003,0.002,0.009,0.007,0.006,0.005,0.006,0.009,0.012,0.006,0.007,0.006,0.01,0.006,0.004
747,0.0,0.003,0.004,0.002,0.003,0.007,0.006,0.006,0.003,0.006,0.006,0.009,0.005,0.004,0.004,0.008,0.005,0.003
748,-0.001,0.0,0.0,0.0,0.001,0.001,0.001,0.001,0.002,0.001,0.003,0.004,0.0,0.0,-0.002,0.003,0.001,-0.002
749,-0.002,0.0,-0.001,0.0,0.0,-0.002,-0.001,0.0,0.001,-0.001,0.001,0.0,-0.002,0.0,-0.002,-0.001,-0.001,-0.003
750,0.0,0.0,0.0,0.0,0.0,0.0,0.0,0.0,0.0,0.0,0.0,0.0,0.0,0.0,0.0,0.0,0.0,0.0
751,-0.001,0.0,0.001,0.0,0.001,0.001,0.003,0.001,0.0,0.003,0.001,0.003,0.001,0.0,0.0,0.003,0.001,0.002
752,0.001,0.0,-0.001,-0.001,0.002,0.004,0.004,0.001,0.001,0.005,0.002,0.004,0.0,0.0,-0.001,0.004,0.002,0.001
753,0.003,0.0,-0.001,0.001,0.004,0.007,0.006,0.004,0.002,0.006,0.005,0.006,0.001,0.001,-0.001,0.006,0.004,0.002
754,0.009,0.002,0.004,0.005,0.008,0.01,0.008,0.005,0.007,0.009,0.008,0.009,0.006,0.006,0.005,0.009,0.007,0.007
755,0.009,0.002,0.006,0.006,0.009,0.01,0.007,0.005,0.008,0.008,0.008,0.01,0.006,0.007,0.008,0.01,0.008,0.008
756,0.008,0.002,0.003,0.004,0.005,0.009,0.006,0.004,0.006,0.006,0.007,0.009,0.001,0.007,0.006,0.009,0.006,0.006
757,0.004,0.001,0.001,0.0,0.001,0.008,0.005,0.004,0.005,0.004,0.004,0.006,-0.001,0.004,0.003,0.007,0.005,0.004
758,0.003,-0.001,0.001,0.0,0.001,0.006,0.003,0.002,0.003,0.003,0.003,0.004,0.001,0.003,0.001,0.006,0.006,0.003
759,0.005,0.0,0.004,0.002,0.005,0.006,0.005,0.005,0.005,0.005,0.005,0.006,0.004,0.004,0.005,0.008,0.008,0.006
760,0.008,0.005,0.007,0.007,0.009,0.009,0.011,0.009,0.008,0.011,0.011,0.01,0.008,0.008,0.007,0.012,0.011,0.008
761,0.007,0.005,0.007,0.008,0.01,0.012,0.011,0.01,0.01,0.009,0.012,0.01,0.008,0.007,0.007,0.013,0.01,0.008
762,0.007,0.003,0.009,0.008,0.011,0.012,0.01,0.009,0.009,0.009,0.011,0.009,0.008,0.007,0.008,0.012,0.01,0.007
763,0.008,0.001,0.009,0.008,0.01,0.011,0.008,0.009,0.011,0.01,0.011,0.009,0.008,0.006,0.008,0.011,0.009,0.008
764,0.01,0.006,0.009,0.009,0.009,0.009,0.01,0.01,0.011,0.011,0.013,0.012,0.009,0.008,0.009,0.011,0.01,0.009
765,0.011,0.006,0.009,0.009,0.008,0.008,0.008,0.007,0.011,0.009,0.013,0.012,0.007,0.007,0.008,0.009,0.011,0.008
766,0.012,0.004,0.009,0.008,0.009,0.009,0.009,0.008,0.009,0.009,0.011,0.013,0.007,0.009,0.008,0.008,0.012,0.009
767,0.01,0.003,0.008,0.008,0.009,0.013,0.009,0.01,0.008,0.009,0.01,0.014,0.007,0.008,0.007,0.008,0.01,0.006
768,0.009,0.003,0.008,0.008,0.009,0.014,0.009,0.009,0.008,0.007,0.011,0.014,0.007,0.008,0.009,0.01,0.008,0.006
769,0.008,0.002,0.007,0.007,0.01,0.011,0.008,0.006,0.009,0.008,0.013,0.013,0.006,0.008,0.008,0.011,0.009,0.005
770,0.009,0.002,0.009,0.009,0.01,0.011,0.012,0.009,0.01,0.011,0.014,0.014,0.009,0.008,0.007,0.013,0.01,0.008
771,0.006,-0.001,0.005,0.008,0.008,0.009,0.009,0.009,0.005,0.008,0.009,0.011,0.006,0.005,0.003,0.009,0.006,0.005
772,0.007,-0.001,0.006,0.006,0.007,0.01,0.005,0.008,0.003,0.007,0.005,0.008,0.004,0.004,0.006,0.008,0.007,0.006
773,0.005,0.002,0.007,0.003,0.006,0.008,0.004,0.007,0.006,0.008,0.005,0.005,0.002,0.006,0.005,0.005,0.007,0.004
774,0.004,0.002,0.005,0.004,0.007,0.009,0.007,0.005,0.007,0.009,0.006,0.007,0.004,0.005,0.004,0.008,0.006,0.006
775,0.001,-0.003,0.0,0.003,0.004,0.004,0.003,0.002,0.001,0.006,0.004,0.007,-0.001,0.003,-0.001,0.008,0.003,0.001
776,0.003,0.0,0.004,0.007,0.008,0.004,0.004,0.004,0.002,0.009,0.009,0.011,0.003,0.003,0.005,0.01,0.008,0.002
777,0.007,0.004,0.009,0.008,0.01,0.005,0.005,0.009,0.007,0.011,0.012,0.011,0.007,0.008,0.009,0.01,0.01,0.006
778,0.003,0.0,0.006,0.005,0.008,0.006,0.005,0.006,0.007,0.008,0.007,0.006,0.006,0.006,0.008,0.006,0.007,0.008
779,0.001,-0.005,0.003,0.0,0.003,0.002,0.004,0.002,0.004,0.003,0.002,0.003,0.002,0.003,0.005,0.004,0.006,0.004
780,0.003,0.001,0.005,0.001,0.004,0.006,0.007,0.002,0.008,0.005,0.004,0.009,0.004,0.004,0.007,0.008,0.011,0.003
781,0.011,0.008,0.007,0.007,0.008,0.009,0.01,0.006,0.011,0.009,0.005,0.012,0.007,0.008,0.008,0.012,0.014,0.008
782,0.008,0.004,0.003,0.005,0.007,0.007,0.006,0.006,0.007,0.007,0.004,0.011,0.004,0.006,0.004,0.009,0.008,0.007
783,-0.001,-0.005,-0.001,-0.002,0.001,0.0,0.0,-0.001,-0.001,0.001,-0.001,0.005,-0.005,0.0,0.0,0.006,-0.001,0.0
784,-0.005,-0.004,-0.003,-0.004,-0.002,0.004,-0.001,-0.001,-0.001,0.001,-0.002,0.005,-0.004,0.001,-0.001,0.005,-0.002,-0.002
785,0.0,0.002,0.002,0.004,0.005,0.007,0.001,0.002,0.005,0.005,0.002,0.007,0.002,0.004,0.004,0.007,0.005,0.001
786,0.007,0.006,0.005,0.01,0.01,0.009,0.002,0.008,0.01,0.008,0.006,0.01,0.006,0.009,0.008,0.008,0.01,0.004
787,0.008,0.006,0.007,0.007,0.009,0.007,0.004,0.005,0.009,0.005,0.007,0.008,0.003,0.008,0.008,0.008,0.008,0.003
788,0.009,0.005,0.007,0.005,0.008,0.006,0.009,0.008,0.008,0.004,0.009,0.01,0.005,0.009,0.008,0.008,0.007,0.004
789,0.01,0.005,0.007,0.008,0.01,0.007,0.01,0.008,0.012,0.01,0.01,0.012,0.007,0.011,0.009,0.012,0.01,0.009
790,0.012,0.008,0.009,0.009,0.011,0.009,0.011,0.009,0.012,0.013,0.01,0.012,0.01,0.011,0.009,0.009,0.013,0.009
791,0.01,0.007,0.009,0.006,0.007,0.009,0.008,0.01,0.01,0.009,0.008,0.011,0.004,0.008,0.007,0.008,0.009,0.005
792,0.006,0.005,0.006,0.0,0.003,0.005,0.006,0.007,0.005,0.002,0.008,0.004,-0.001,0.005,0.005,0.006,0.006,0.001
793,0.005,0.006,0.006,0.002,0.005,0.008,0.007,0.005,0.006,0.002,0.01,0.003,0.002,0.007,0.006,0.007,0.006,0.003
794,0.01,0.01,0.01,0.01,0.009,0.011,0.01,0.007,0.008,0.01,0.013,0.007,0.008,0.01,0.009,0.008,0.009,0.005
795,0.009,0.006,0.011,0.009,0.007,0.012,0.01,0.009,0.009,0.014,0.009,0.009,0.005,0.008,0.004,0.008,0.007,0.006
796,0.005,-0.001,0.005,0.006,0.003,0.005,0.007,0.007,0.007,0.01,0.003,0.004,0.003,0.006,0.002,0.006,0.006,0.005
797,0.002,-0.004,0.001,0.0,0.002,0.003,0.006,0.006,0.002,0.004,0.001,0.004,0.002,0.002,0.001,0.005,0.004,0.003
798,0.003,-0.002,0.001,0.002,0.004,0.003,0.005,0.002,0.001,0.001,0.004,0.005,0.004,0.001,0.002,0.008,0.006,0.004
799,0.003,0.003,0.003,0.002,0.008,0.009,0.007,0.0,0.005,0.003,0.011,0.006,0.005,0.005,0.004,0.01,0.011,0.008
800,0.006,0.003,0.003,0.007,0.008,0.012,0.006,0.006,0.005,0.007,0.011,0.006,0.002,0.01,0.009,0.009,0.011,0.009
801,0.01,0.004,0.005,0.008,0.008,0.01,0.007,0.012,0.002,0.009,0.008,0.009,0.002,0.011,0.011,0.009,0.009,0.009
802,0.014,0.004,0.01,0.009,0.011,0.009,0.005,0.011,0.006,0.01,0.008,0.015,0.005,0.01,0.012,0.013,0.009,0.01
803,0.006,0.002,0.01,0.007,0.011,0.01,0.005,0.008,0.007,0.008,0.008,0.012,0.006,0.006,0.007,0.009,0.011,0.007
804,0.002,-0.005,0.005,0.007,0.007,0.01,0.002,0.005,0.007,0.008,0.003,0.007,0.001,0.005,0.001,0.006,0.004,0.003
805,-0.002,-0.008,0.003,0.007,0.001,0.008,0.004,0.004,0.002,0.001,-0.002,0.004,-0.001,0.001,-0.002,0.004,0.0,0.0
806,0.006,0.002,0.004,0.007,0.003,0.009,0.006,0.007,0.004,0.003,0.003,0.008,0.002,-0.002,0.005,0.01,0.003,0.005
807,0.009,0.011,0.0,0.006,0.002,0.008,0.012,0.01,0.006,0.005,0.006,0.009,0.005,0.002,0.009,0.009,0.009,0.007
808,0.007,0.005,-0.002,0.009,-0.001,0.005,0.008,0.006,0.005,0.008,0.007,0.008,0.006,0.004,0.008,0.005,0.01,0.004
809,0.004,0.003,0.006,0.013,0.001,0.004,0.008,0.008,0.006,0.007,0.007,0.016,0.01,0.006,0.009,0.007,0.014,0.007
810,0.009,0.011,0.009,0.012,0.008,0.007,0.006,0.012,0.009,0.013,0.012,0.018,0.015,0.007,0.013,0.014,0.014,0.014
811,0.013,0.021,0.007,0.012,0.009,0.013,0.013,0.015,0.013,0.016,0.017,0.016,0.019,0.012,0.02,0.018,0.012,0.015
812,0.009,0.02,0.011,0.012,0.009,0.014,0.011,0.012,0.012,0.014,0.014,0.014,0.012,0.012,0.018,0.018,0.01,0.009
813,0.009,0.017,0.014,0.01,0.011,0.012,0.012,0.011,0.013,0.014,0.013,0.018,0.008,0.012,0.016,0.019,0.014,0.01
814,0.015,0.02,0.021,0.014,0.017,0.015,0.017,0.021,0.016,0.023,0.019,0.023,0.013,0.017,0.018,0.024,0.019,0.018
815,0.021,0.017,0.018,0.017,0.016,0.015,0.018,0.023,0.014,0.022,0.025,0.019,0.018,0.02,0.019,0.02,0.019,0.02
816,0.022,0.012,0.013,0.02,0.015,0.019,0.015,0.017,0.015,0.013,0.024,0.019,0.015,0.021,0.013,0.015,0.021,0.016
817,0.021,0.009,0.013,0.015,0.016,0.019,0.012,0.008,0.018,0.009,0.021,0.017,0.016,0.02,0.013,0.018,0.017,0.016
818,0.018,0.012,0.015,0.013,0.017,0.02,0.016,0.011,0.017,0.011,0.023,0.02,0.018,0.017,0.015,0.021,0.013,0.017
819,0.01,0.009,0.01,0.006,0.008,0.016,0.012,0.008,0.008,0.011,0.02,0.016,0.012,0.011,0.011,0.016,0.006,0.011
820,0.007,0.005,0.009,0.006,0.006,0.014,0.009,0.011,0.009,0.011,0.013,0.014,0.009,0.006,0.009,0.01,0.005,0.006
821,0.002,-0.002,0.007,0.0,0.004,0.005,0.005,0.006,0.006,0.006,0.006,0.007,0.005,0.002,0.005,0.006,0.004,0.002
822,0.001,-0.004,0.002,0.001,0.004,0.002,0.006,0.006,0.003,0.003,0.005,0.006,0.003,0.002,0.002,0.006,0.007,0.003
823,0.009,0.007,0.006,0.01,0.007,0.01,0.012,0.011,0.01,0.011,0.011,0.013,0.009,0.011,0.009,0.015,0.012,0.012
824,0.016,0.02,0.013,0.017,0.014,0.018,0.017,0.017,0.018,0.018,0.018,0.019,0.017,0.017,0.018,0.021,0.018,0.018
825,0.013,0.019,0.011,0.012,0.01,0.014,0.014,0.013,0.013,0.013,0.013,0.016,0.013,0.012,0.013,0.015,0.015,0.01
826,0.004,0.007,0.004,0.004,0.003,0.003,0.006,0.006,0.005,0.005,0.005,0.007,0.005,0.004,0.008,0.007,0.007,0.001
827,0.011,0.008,0.01,0.01,0.009,0.007,0.011,0.011,0.012,0.01,0.011,0.012,0.009,0.008,0.01,0.012,0.01,0.008
828,0.019,0.02,0.018,0.021,0.019,0.018,0.021,0.019,0.021,0.02,0.023,0.021,0.018,0.02,0.02,0.025,0.02,0.022
829,0.02,0.028,0.02,0.023,0.019,0.02,0.023,0.022,0.021,0.02,0.023,0.024,0.018,0.024,0.022,0.025,0.024,0.021
830,0.014,0.021,0.015,0.016,0.014,0.015,0.016,0.019,0.014,0.019,0.016,0.023,0.013,0.02,0.016,0.021,0.02,0.016
831,0.015,0.015,0.012,0.012,0.011,0.013,0.012,0.015,0.011,0.016,0.011,0.02,0.009,0.016,0.012,0.016,0.015,0.014
832,0.012,0.005,0.01,0.007,0.007,0.008,0.008,0.009,0.008,0.011,0.007,0.011,0.005,0.013,0.008,0.012,0.01,0.014
833,0.006,-0.001,0.005,0.003,0.004,0.003,0.004,0.004,0.009,0.005,0.003,0.004,0.001,0.006,0.004,0.007,0.004,0.007
834,0.002,-0.001,0.004,0.004,0.006,0.005,0.005,0.006,0.01,0.007,0.007,0.005,0.006,0.005,0.003,0.01,0.005,0.008
835,0.008,0.005,0.007,0.008,0.009,0.011,0.005,0.011,0.011,0.01,0.012,0.01,0.009,0.008,0.007,0.012,0.01,0.009
836,0.01,0.009,0.009,0.009,0.009,0.014,0.005,0.011,0.009,0.007,0.012,0.014,0.008,0.01,0.012,0.01,0.008,0.009
837,0.007,0.008,0.006,0.004,0.003,0.012,0.002,0.0,0.004,0.001,0.003,0.011,0.004,0.004,0.005,0.007,0.002,0.004
838,0.007,0.013,0.006,0.001,0.002,0.008,0.002,0.0,0.001,0.004,0.004,0.005,0.001,0.006,0.0,0.003,0.004,0.006
839,0.012,0.015,0.012,0.006,0.009,0.006,0.001,0.011,0.003,0.01,0.011,0.006,0.003,0.012,0.001,0.009,0.01,0.012
840,0.011,0.005,0.011,0.006,0.012,0.006,0.004,0.018,0.005,0.011,0.013,0.01,0.006,0.012,0.011,0.015,0.012,0.021
